Acquisition Log Started on 03/17/21 at 17:31:59
Time,Pressure1,Pressure2,Pressure3,Pressure4,Ave P1,Ave P2,Ave Flow,Ave Temp,CM Flow,CM Density,CM Temp,Freq Set
17:31:59,6.266405,0.748778,0.027218,0.029050,4.359039,0.704351,0.050198,0.025220,5.880000,1.000000,19.959999,10.000000
17:31:59,3.955719,0.665737,0.027218,0.029050,4.361140,0.704351,0.050198,0.025220,5.880000,1.000000,19.959999,10.000000
17:32:00,3.745657,0.624217,0.027218,0.029050,4.361140,0.703936,0.048922,0.025220,0.030000,1.000000,19.969999,10.000000
17:32:00,3.955719,0.748778,0.027218,0.029050,4.359039,0.704351,0.048922,0.025220,0.030000,1.000000,19.969999,10.000000
17:32:00,3.745657,0.748778,0.027218,0.029050,4.352737,0.704351,0.048922,0.025220,0.030000,1.000000,19.969999,10.000000
17:32:00,3.955719,0.665737,0.027218,0.029050,4.348536,0.703936,0.048922,0.025220,0.030000,1.000000,19.969999,10.000000
17:32:00,3.535595,0.624217,0.027218,0.029050,4.333831,0.703521,0.048922,0.025220,0.030000,1.000000,19.969999,10.000000
17:32:00,3.535595,0.624217,0.027218,0.029050,4.314926,0.703106,0.048922,0.025220,0.030000,1.000000,19.969999,10.000000
17:32:00,3.745657,0.665737,0.154884,0.029050,4.298121,0.702275,0.050198,0.025220,0.030000,1.000000,19.969999,10.000000
17:32:00,3.325532,0.665737,-0.100448,0.029050,4.285517,0.701860,0.048922,0.025220,0.030000,1.000000,19.969999,10.000000
17:32:00,3.325532,0.541176,0.027218,0.029050,4.272913,0.700614,0.048922,0.025220,0.030000,1.000000,19.969999,10.000000
17:32:00,3.325532,0.541176,0.027218,0.029050,4.262410,0.701445,0.048922,0.025220,0.030000,1.000000,19.969999,10.000000
17:32:01,3.535595,0.541176,0.027218,0.029050,4.256108,0.699369,0.048922,0.025220,5.770000,1.000000,19.980000,10.000000
17:32:01,2.905408,0.624217,0.027218,0.029050,4.243505,0.697708,0.048922,0.025220,5.770000,1.000000,19.980000,10.000000
17:32:01,3.325532,0.582697,0.027218,0.029050,4.239303,0.696462,0.048922,0.025220,5.770000,1.000000,19.980000,10.000000
17:32:01,2.905408,0.499656,0.027218,0.029050,4.230901,0.694801,0.048922,0.025220,5.770000,1.000000,19.980000,10.000000
17:32:01,3.115470,0.499656,0.154884,0.029050,4.220398,0.692725,0.050198,0.025220,5.770000,1.000000,19.980000,10.000000
17:32:01,2.485283,0.541176,0.027218,0.029050,4.199392,0.690649,0.050198,0.025220,5.770000,1.000000,19.980000,10.000000
17:32:01,2.905408,0.582697,0.027218,0.029050,4.182587,0.688989,0.047645,0.025220,5.770000,1.000000,19.980000,10.000000
17:32:01,3.745657,0.541176,0.027218,0.029050,4.174184,0.688158,0.047645,0.025220,5.770000,1.000000,19.980000,10.000000
17:32:01,2.695345,0.458136,0.027218,0.029050,4.151077,0.686082,0.047645,0.025220,5.770000,1.000000,19.980000,10.000000
17:32:01,2.485283,0.458136,0.027218,0.029050,4.134272,0.682761,0.047645,0.025220,5.770000,1.000000,19.980000,10.000000
17:32:02,3.115470,0.458136,0.027218,0.029050,4.125870,0.680269,0.047645,0.025220,0.000000,1.000000,19.990000,10.000000
17:32:02,2.695345,0.499656,0.027218,0.029050,4.111165,0.678609,0.047645,0.025220,0.000000,1.000000,19.990000,10.000000
17:32:02,2.485283,0.499656,0.027218,-0.098623,4.094360,0.676117,0.047645,0.023943,0.000000,1.000000,19.990000,10.000000
17:32:02,2.695345,0.416616,0.027218,0.029050,4.077555,0.672381,0.047645,0.023943,0.000000,1.000000,19.990000,10.000000
17:32:02,2.275221,0.375095,0.282550,0.029050,4.056549,0.669059,0.047645,0.023943,0.000000,1.000000,19.990000,10.000000
17:32:02,1.855096,0.375095,0.027218,0.029050,4.033442,0.666152,0.047645,0.023943,0.000000,1.000000,19.990000,10.000000
17:32:02,2.065158,0.375095,0.027218,0.029050,4.016637,0.663246,0.047645,0.023943,0.000000,1.000000,19.990000,10.000000
17:32:02,2.065158,0.416616,0.027218,0.029050,3.997732,0.659924,0.047645,0.023943,0.000000,1.000000,19.990000,10.000000
17:32:02,2.275221,0.416616,0.027218,0.029050,3.978826,0.656603,0.047645,0.023943,0.000000,1.000000,19.990000,10.000000
17:32:02,2.065158,0.333575,0.027218,0.029050,3.962021,0.653281,0.047645,0.023943,0.000000,1.000000,19.990000,10.000000
17:32:03,2.065158,0.333575,0.027218,0.029050,3.934713,0.649960,0.047645,0.023943,4.760000,1.000000,19.990000,10.000000
17:32:03,1.645034,0.333575,0.027218,0.029050,3.911606,0.645808,0.047645,0.023943,4.760000,1.000000,19.990000,10.000000
17:32:03,1.434971,0.375095,0.027218,0.029050,3.884298,0.642071,0.047645,0.023943,4.760000,1.000000,19.990000,10.000000
17:32:03,2.065158,0.375095,0.027218,0.029050,3.861191,0.638749,0.043815,0.023943,4.760000,1.000000,19.990000,10.000000
17:32:03,2.065158,0.333575,0.027218,0.029050,3.842286,0.635427,0.043815,0.023943,4.760000,1.000000,19.990000,10.000000
17:32:03,2.695345,0.333575,0.027218,0.029050,3.821279,0.631691,0.043815,0.023943,4.760000,1.000000,19.990000,10.000000
17:32:03,1.224909,0.292055,0.027218,0.029050,3.791871,0.627123,0.043815,0.023943,4.760000,1.000000,19.990000,10.000000
17:32:03,1.224909,0.250535,0.027218,0.029050,3.756160,0.622141,0.043815,0.023943,4.760000,1.000000,19.990000,10.000000
17:32:03,1.224909,0.292055,0.027218,0.029050,3.728852,0.618819,0.043815,0.023943,4.760000,1.000000,19.990000,10.000000
17:32:03,1.434971,0.292055,0.027218,0.029050,3.697343,0.615083,0.043815,0.023943,4.760000,1.000000,19.990000,10.000000
17:32:04,2.065158,0.333575,0.027218,0.029050,3.674236,0.610931,0.043815,0.023943,4.170000,1.000000,19.990000,10.000000
17:32:04,1.224909,0.250535,0.027218,0.029050,3.644827,0.605948,0.043815,0.023943,4.170000,1.000000,19.990000,10.000000
17:32:04,1.014847,0.250535,0.027218,0.029050,3.615418,0.601796,0.038708,0.023943,4.170000,1.000000,19.990000,10.000000
17:32:04,0.804784,0.209014,0.027218,0.029050,3.583909,0.597229,0.038708,0.023943,4.170000,1.000000,19.990000,10.000000
17:32:04,0.594722,0.250535,0.027218,0.029050,3.546098,0.593077,0.038708,0.023943,4.170000,1.000000,19.990000,10.000000
17:32:04,0.594722,0.250535,0.027218,0.029050,3.506186,0.588094,0.038708,0.023943,4.170000,1.000000,19.990000,10.000000
17:32:04,0.594722,0.209014,0.027218,0.029050,3.472576,0.583112,0.038708,0.023943,4.170000,1.000000,19.990000,10.000000
17:32:04,0.804784,0.250535,0.027218,0.029050,3.441066,0.578960,0.038708,0.023943,4.170000,1.000000,19.990000,10.000000
17:32:04,1.014847,0.250535,0.154884,0.029050,3.415859,0.574808,0.039985,0.023943,4.170000,1.000000,19.990000,10.000000
17:32:04,1.014847,0.209014,0.027218,0.029050,3.384350,0.569410,0.039985,0.023943,4.170000,1.000000,19.990000,10.000000
17:32:05,0.804784,0.167494,-0.483445,0.029050,3.340237,0.564013,0.034878,0.023943,3.600000,1.000000,19.990000,10.000000
17:32:05,0.804784,0.167494,0.027218,0.029050,3.300325,0.559030,0.041262,0.023943,3.600000,1.000000,19.990000,10.000000
17:32:05,0.594722,0.167494,0.027218,0.029050,3.266715,0.554048,0.041262,0.023943,3.600000,1.000000,19.990000,10.000000
17:32:05,0.384659,0.209014,0.154884,0.029050,3.233105,0.549065,0.042538,0.023943,3.600000,1.000000,19.990000,10.000000
17:32:05,0.594722,0.209014,0.027218,0.029050,3.199495,0.543668,0.042538,0.023943,3.600000,1.000000,19.990000,10.000000
17:32:05,1.014847,0.209014,0.027218,0.029050,3.172187,0.539100,0.042538,0.023943,3.600000,1.000000,19.990000,10.000000
17:32:05,1.014847,0.250535,0.027218,0.029050,3.134375,0.535364,0.042538,0.023943,3.600000,1.000000,19.990000,10.000000
17:32:05,1.014847,0.250535,0.027218,0.029050,3.107067,0.530796,0.042538,0.023943,3.600000,1.000000,19.990000,10.000000
17:32:05,0.804784,0.209014,0.027218,0.029050,3.075558,0.525399,0.042538,0.023943,3.600000,1.000000,19.990000,10.000000
17:32:05,1.645034,0.209014,0.537882,0.029050,3.052451,0.520416,0.047645,0.023943,3.600000,1.000000,19.990000,10.000000
17:32:06,0.804784,0.167494,0.027218,0.029050,3.023042,0.515434,0.039985,0.023943,3.110000,1.000000,19.990000,10.000000
17:32:06,1.014847,0.167494,0.027218,0.029050,2.991533,0.510452,0.041262,0.023943,3.110000,1.000000,19.990000,10.000000
17:32:06,0.804784,0.167494,0.027218,0.029050,2.955822,0.504639,0.041262,0.023943,3.110000,1.000000,19.990000,10.000000
17:32:06,1.014847,0.209014,0.027218,0.029050,2.918011,0.499241,0.041262,0.023943,3.110000,1.000000,19.990000,10.000000
17:32:06,0.804784,0.209014,0.027218,0.029050,2.886502,0.494674,0.041262,0.023943,3.110000,1.000000,19.990000,10.000000
17:32:06,1.645034,0.250535,0.154884,0.029050,2.865496,0.490522,0.042538,0.023943,3.110000,1.000000,19.990000,10.000000
17:32:06,0.804784,0.209014,0.027218,0.029050,2.833986,0.485539,0.042538,0.023943,3.110000,1.000000,19.990000,10.000000
17:32:06,1.224909,0.209014,0.027218,0.029050,2.802477,0.479727,0.042538,0.023943,3.110000,1.000000,19.990000,10.000000
17:32:06,2.905408,0.209014,-0.483445,0.029050,2.789873,0.474744,0.037432,0.023943,3.110000,1.000000,19.990000,10.000000
17:32:06,0.804784,0.167494,0.027218,0.029050,2.754163,0.469762,0.034878,0.023943,3.110000,1.000000,19.990000,10.000000
17:32:07,0.804784,0.209014,0.027218,0.029050,2.724754,0.464779,0.033602,0.023943,0.000000,1.000000,19.980000,10.000000
17:32:07,1.224909,0.209014,0.027218,0.029050,2.691144,0.459382,0.033602,0.023943,0.000000,1.000000,19.980000,10.000000
17:32:07,0.804784,0.209014,0.027218,-0.098623,2.638628,0.453984,0.033602,0.022666,0.000000,1.000000,19.980000,10.000000
17:32:07,2.485283,0.250535,0.027218,0.029050,2.621823,0.449832,0.033602,0.022666,0.000000,1.000000,19.980000,10.000000
17:32:07,1.224909,0.250535,0.027218,0.029050,2.590314,0.445680,0.033602,0.022666,0.000000,1.000000,19.980000,10.000000
17:32:07,5.216093,0.250535,0.027218,0.029050,2.592415,0.440697,0.033602,0.022666,0.000000,1.000000,19.980000,10.000000
17:32:07,0.804784,0.209014,0.027218,0.029050,2.556704,0.435300,0.033602,0.022666,0.000000,1.000000,19.980000,10.000000
17:32:07,1.224909,0.209014,0.027218,0.029050,2.525195,0.430317,0.033602,0.022666,0.000000,1.000000,19.980000,10.000000
17:32:07,0.804784,0.167494,0.027218,0.029050,2.493685,0.425335,0.025942,0.022666,0.000000,1.000000,19.980000,10.000000
17:32:07,1.014847,0.333575,0.027218,0.029050,2.457975,0.421183,0.025942,0.022666,0.000000,1.000000,19.980000,10.000000
17:32:08,0.594722,0.209014,0.027218,0.029050,2.424365,0.416201,0.025942,0.022666,2.950000,1.000000,19.990000,10.000000
17:32:08,1.645034,0.250535,0.027218,0.029050,2.386554,0.411633,0.025942,0.022666,2.950000,1.000000,19.990000,10.000000
17:32:08,1.014847,0.250535,0.027218,0.029050,2.344541,0.407481,0.025942,0.022666,2.950000,1.000000,19.990000,10.000000
17:32:08,1.224909,0.292055,0.027218,0.029050,2.317233,0.403329,0.025942,0.023943,2.950000,1.000000,19.990000,10.000000
17:32:08,1.855096,0.250535,0.027218,0.029050,2.287824,0.398347,0.025942,0.023943,2.950000,1.000000,19.990000,10.000000
17:32:08,1.224909,0.209014,0.027218,0.029050,2.254214,0.392949,0.025942,0.023943,2.950000,1.000000,19.990000,10.000000
17:32:08,1.855096,0.209014,0.027218,0.029050,2.216403,0.388382,0.025942,0.023943,2.950000,1.000000,19.990000,10.000000
17:32:08,0.804784,0.167494,0.027218,0.029050,2.176491,0.383400,0.023388,0.023943,2.950000,1.000000,19.990000,10.000000
17:32:08,1.224909,0.001413,0.027218,0.029050,2.144982,0.375926,0.023388,0.025220,2.950000,1.000000,19.990000,10.000000
17:32:08,0.804784,0.209014,0.027218,0.029050,2.100869,0.370528,0.023388,0.025220,2.950000,1.000000,19.990000,10.000000
17:32:09,1.014847,0.250535,0.027218,0.029050,2.069359,0.365961,0.023388,0.025220,2.950000,1.000000,19.980000,10.000000
17:32:09,1.014847,0.209014,0.027218,0.029050,2.039951,0.361394,0.023388,0.025220,2.950000,1.000000,19.980000,10.000000
17:32:09,1.434971,0.292055,0.027218,-0.098623,2.016844,0.357242,0.023388,0.023943,2.950000,1.000000,19.980000,10.000000
17:32:09,1.855096,0.250535,0.027218,0.029050,1.983234,0.352259,0.023388,0.023943,2.950000,1.000000,19.980000,10.000000
17:32:09,1.014847,0.209014,0.027218,0.029050,1.934920,0.346862,0.023388,0.023943,2.950000,1.000000,19.980000,10.000000
17:32:09,0.594722,0.209014,0.027218,0.029050,1.903410,0.342294,0.023388,0.023943,2.950000,1.000000,19.980000,10.000000
17:32:09,0.594722,0.167494,0.027218,0.029050,1.871901,0.337312,0.029772,0.023943,2.950000,1.000000,19.980000,10.000000
17:32:09,0.594722,0.209014,0.027218,0.029050,1.834090,0.331914,0.029772,0.025220,2.950000,1.000000,19.980000,10.000000
17:32:09,2.485283,0.209014,0.027218,0.029050,1.796278,0.326517,0.029772,0.025220,2.950000,1.000000,19.980000,10.000000
17:32:09,1.224909,0.250535,0.027218,0.029050,1.768970,0.322365,0.029772,0.025220,2.950000,1.000000,19.980000,10.000000
17:32:10,1.014847,0.250535,0.027218,0.029050,1.741662,0.318628,0.029772,0.025220,2.940000,0.000000,19.959999,10.000000
17:32:10,1.434971,0.250535,0.027218,0.029050,1.716455,0.313645,0.029772,0.025220,2.940000,0.000000,19.959999,10.000000
17:32:10,1.224909,0.250535,0.027218,0.029050,1.691247,0.308663,0.029772,0.025220,2.940000,0.000000,19.959999,10.000000
17:32:10,0.804784,0.209014,0.027218,0.029050,1.659738,0.304096,0.029772,0.025220,2.940000,0.000000,19.959999,10.000000
17:32:10,0.804784,0.209014,0.027218,0.029050,1.632430,0.299944,0.029772,0.025220,2.940000,0.000000,19.959999,10.000000
17:32:10,1.014847,0.167494,0.027218,0.029050,1.607222,0.295377,0.029772,0.025220,2.940000,0.000000,19.959999,10.000000
17:32:10,2.485283,0.250535,0.027218,0.029050,1.594619,0.291225,0.028495,0.025220,2.940000,0.000000,19.959999,10.000000
17:32:10,1.014847,0.250535,0.027218,0.029050,1.571512,0.287073,0.029772,0.025220,2.940000,0.000000,19.959999,10.000000
17:32:10,0.804784,0.209014,0.027218,0.029050,1.546304,0.283751,0.029772,0.025220,2.940000,0.000000,19.959999,10.000000
17:32:10,1.434971,0.250535,0.027218,0.029050,1.527399,0.280844,0.029772,0.025220,2.940000,0.000000,19.959999,10.000000
17:32:11,1.014847,0.292055,0.027218,0.029050,1.502191,0.278353,0.029772,0.025220,2.940000,0.000000,19.940001,10.000000
17:32:11,1.645034,0.250535,0.027218,0.029050,1.489587,0.274616,0.029772,0.025220,2.940000,0.000000,19.940001,10.000000
17:32:11,1.014847,0.209014,0.027218,0.029050,1.466481,0.270880,0.029772,0.025220,2.940000,0.000000,19.940001,10.000000
17:32:11,0.804784,0.167494,0.027218,0.029050,1.445474,0.267558,0.029772,0.025220,2.940000,0.000000,19.940001,10.000000
17:32:11,0.804784,0.209014,0.027218,0.029050,1.422367,0.264652,0.028495,0.025220,2.940000,0.000000,19.940001,10.000000
17:32:11,0.804784,0.209014,0.027218,0.029050,1.405562,0.261330,0.028495,0.025220,2.940000,0.000000,19.940001,10.000000
17:32:11,1.014847,0.209014,0.027218,0.029050,1.386657,0.257593,0.028495,0.025220,2.940000,0.000000,19.940001,10.000000
17:32:11,-0.245528,0.209014,0.027218,0.029050,1.346745,0.254271,0.028495,0.025220,2.940000,0.000000,19.940001,10.000000
17:32:11,1.014847,0.250535,0.027218,0.029050,1.329940,0.252195,0.028495,0.025220,2.940000,0.000000,19.940001,10.000000
17:32:11,1.434971,0.250535,0.027218,0.029050,1.319437,0.250119,0.028495,0.025220,2.940000,0.000000,19.940001,10.000000
17:32:12,2.275221,0.209014,0.154884,0.029050,1.311034,0.247628,0.029772,0.025220,2.940000,10510094840312367800000000000000000.000000,19.930000,10.000000
17:32:12,1.014847,0.209014,0.027218,0.029050,1.294229,0.244722,0.029772,0.025220,2.940000,10510094840312367800000000000000000.000000,19.930000,10.000000
17:32:12,1.014847,0.167494,0.027218,0.029050,1.279525,0.241400,0.029772,0.026496,2.940000,10510094840312367800000000000000000.000000,19.930000,10.000000
17:32:12,0.804784,0.209014,0.027218,0.029050,1.260619,0.239324,0.029772,0.026496,2.940000,10510094840312367800000000000000000.000000,19.930000,10.000000
17:32:12,0.804784,0.209014,0.027218,0.029050,1.245915,0.237663,0.027218,0.026496,2.940000,10510094840312367800000000000000000.000000,19.930000,10.000000
17:32:12,1.224909,0.209014,0.027218,0.029050,1.239613,0.236003,0.027218,0.026496,2.940000,10510094840312367800000000000000000.000000,19.930000,10.000000
17:32:12,1.855096,0.250535,0.027218,0.029050,1.237513,0.234757,0.027218,0.026496,2.940000,10510094840312367800000000000000000.000000,19.930000,10.000000
17:32:12,0.804784,0.250535,0.027218,0.029050,1.224909,0.233096,0.027218,0.026496,2.940000,10510094840312367800000000000000000.000000,19.930000,10.000000
17:32:12,3.325532,0.250535,0.154884,0.029050,1.235412,0.231435,0.028495,0.026496,2.940000,10510094840312367800000000000000000.000000,19.930000,10.000000
17:32:12,1.014847,0.209014,0.027218,0.029050,1.224909,0.230190,0.028495,0.026496,2.940000,10510094840312367800000000000000000.000000,19.930000,10.000000
17:32:13,1.014847,0.250535,0.027218,0.029050,1.214406,0.229359,0.028495,0.026496,2.950000,0.000000,19.950001,10.000000
17:32:13,0.594722,0.167494,0.027218,0.156723,1.203903,0.227699,0.028495,0.027773,2.950000,0.000000,19.950001,10.000000
17:32:13,1.014847,0.209014,0.027218,0.029050,1.199701,0.226038,0.028495,0.027773,2.950000,0.000000,19.950001,10.000000
17:32:13,1.014847,0.209014,0.027218,0.029050,1.189198,0.224377,0.028495,0.027773,2.950000,0.000000,19.950001,10.000000
17:32:13,0.804784,0.209014,0.154884,0.029050,1.176595,0.223131,0.029772,0.027773,2.950000,0.000000,19.950001,10.000000
17:32:13,0.804784,0.250535,0.027218,0.029050,1.157689,0.222301,0.029772,0.027773,2.950000,0.000000,19.950001,10.000000
17:32:13,1.434971,0.250535,0.027218,0.029050,1.159790,0.221886,0.029772,0.027773,2.950000,0.000000,19.950001,10.000000
17:32:13,1.224909,0.250535,0.154884,0.029050,1.159790,0.221886,0.031048,0.027773,2.950000,0.000000,19.950001,10.000000
17:32:13,1.855096,0.209014,0.027218,0.029050,1.166091,0.221055,0.031048,0.027773,2.950000,0.000000,19.950001,10.000000
17:32:13,1.434971,0.209014,0.027218,0.029050,1.166091,0.220225,0.031048,0.027773,2.950000,0.000000,19.950001,10.000000
17:32:14,3.325532,0.167494,0.027218,-0.226296,1.178695,0.218564,0.031048,0.025220,2.950000,0.000000,19.969999,10.000000
17:32:14,1.014847,0.209014,-0.100448,0.029050,1.176595,0.218149,0.029772,0.025220,2.950000,0.000000,19.969999,10.000000
17:32:14,1.224909,0.209014,0.027218,0.029050,1.178695,0.217734,0.029772,0.025220,2.950000,0.000000,19.969999,10.000000
17:32:14,0.804784,0.209014,0.027218,0.029050,1.178695,0.217734,0.029772,0.025220,2.950000,0.000000,19.969999,10.000000
17:32:14,0.804784,0.250535,0.154884,0.029050,1.180796,0.217734,0.031048,0.025220,2.950000,0.000000,19.969999,10.000000
17:32:14,1.645034,0.250535,0.027218,0.029050,1.191299,0.217734,0.031048,0.025220,2.950000,0.000000,19.969999,10.000000
17:32:14,1.224909,0.250535,0.027218,0.029050,1.197601,0.218149,0.031048,0.025220,2.950000,0.000000,19.969999,10.000000
17:32:14,0.804784,0.209014,0.027218,0.029050,1.197601,0.217734,0.031048,0.025220,2.950000,0.000000,19.969999,10.000000
17:32:14,1.645034,0.167494,0.027218,0.029050,1.203903,0.216903,0.029772,0.025220,2.950000,0.000000,19.969999,10.000000
17:32:14,0.804784,0.209014,0.027218,0.156723,1.201802,0.216903,0.029772,0.026496,2.950000,0.000000,19.969999,10.000000
17:32:15,2.275221,0.209014,0.027218,0.029050,1.216506,0.217318,0.034878,0.026496,2.950000,1.000000,19.969999,10.000000
17:32:15,0.594722,0.209014,0.154884,0.029050,1.214406,0.217734,0.036155,0.026496,2.950000,1.000000,19.969999,10.000000
17:32:15,1.224909,0.250535,0.027218,0.029050,1.220708,0.218564,0.036155,0.026496,2.950000,1.000000,19.969999,10.000000
17:32:15,0.804784,0.209014,0.027218,0.029050,1.224909,0.218564,0.034878,0.026496,2.950000,1.000000,19.969999,10.000000
17:32:15,1.014847,0.250535,0.027218,0.029050,1.229110,0.218979,0.034878,0.026496,2.950000,1.000000,19.969999,10.000000
17:32:15,1.014847,0.250535,0.027218,0.029050,1.229110,0.219394,0.034878,0.026496,2.950000,1.000000,19.969999,10.000000
17:32:15,1.014847,0.209014,0.027218,0.029050,1.229110,0.218979,0.034878,0.026496,2.950000,1.000000,19.969999,10.000000
17:32:15,3.745657,0.209014,0.027218,0.029050,1.256418,0.218564,0.034878,0.026496,2.950000,1.000000,19.969999,10.000000
17:32:15,1.014847,0.167494,0.027218,0.029050,1.258519,0.218149,0.034878,0.026496,2.950000,1.000000,19.969999,10.000000
17:32:15,1.014847,0.209014,0.027218,0.029050,1.252217,0.218149,0.029772,0.026496,2.950000,1.000000,19.969999,10.000000
17:32:16,0.594722,0.209014,0.154884,0.029050,1.250116,0.218564,0.031048,0.026496,2.950000,0.000000,19.969999,10.000000
17:32:16,1.014847,0.209014,0.027218,0.029050,1.250116,0.218979,0.031048,0.026496,2.950000,0.000000,19.969999,10.000000
17:32:16,1.014847,0.250535,0.027218,0.029050,1.252217,0.219810,0.031048,0.026496,2.950000,0.000000,19.969999,10.000000
17:32:16,1.224909,0.250535,0.154884,0.029050,1.254318,0.220225,0.032325,0.026496,2.950000,0.000000,19.969999,10.000000
17:32:16,1.645034,0.250535,0.027218,0.029050,1.262720,0.220640,0.032325,0.026496,2.950000,0.000000,19.969999,10.000000
17:32:16,1.224909,0.209014,0.027218,0.029050,1.258519,0.220225,0.031048,0.026496,2.950000,0.000000,19.969999,10.000000
17:32:16,3.535595,0.167494,0.027218,0.029050,1.285827,0.219810,0.031048,0.026496,2.950000,0.000000,19.969999,10.000000
17:32:16,1.014847,0.209014,0.154884,0.029050,1.283726,0.219810,0.032325,0.026496,2.950000,0.000000,19.969999,10.000000
17:32:16,0.804784,0.209014,0.027218,0.029050,1.262720,0.219810,0.037432,0.026496,2.950000,0.000000,19.969999,10.000000
17:32:16,1.434971,0.209014,0.027218,0.029050,1.269022,0.220225,0.037432,0.026496,2.950000,0.000000,19.969999,10.000000
17:32:17,1.014847,0.250535,0.027218,0.029050,1.271123,0.220640,0.037432,0.026496,2.940000,0.000000,19.959999,10.000000
17:32:17,0.804784,0.250535,0.027218,0.029050,1.266921,0.221055,0.037432,0.026496,2.940000,0.000000,19.959999,10.000000
17:32:17,1.434971,0.250535,0.154884,0.029050,1.273223,0.221470,0.038708,0.027773,2.940000,0.000000,19.959999,10.000000
17:32:17,1.224909,0.250535,0.027218,0.029050,1.260619,0.221470,0.038708,0.027773,2.940000,0.000000,19.959999,10.000000
17:32:17,1.014847,0.209014,0.027218,0.029050,1.258519,0.221055,0.038708,0.027773,2.940000,0.000000,19.959999,10.000000
17:32:17,0.594722,0.209014,0.027218,-0.098623,1.212305,0.220640,0.038708,0.026496,2.940000,0.000000,19.959999,10.000000
17:32:17,0.384659,0.209014,0.027218,-0.226296,1.208104,0.220640,0.038708,0.023943,2.940000,0.000000,19.959999,10.000000
17:32:17,0.594722,0.209014,0.027218,0.029050,1.201802,0.220640,0.038708,0.023943,2.940000,0.000000,19.959999,10.000000
17:32:17,0.594722,0.209014,0.154884,0.029050,1.199701,0.221055,0.039985,0.023943,2.940000,0.000000,19.959999,10.000000
17:32:17,0.594722,0.250535,0.027218,-0.098623,1.195500,0.220225,0.039985,0.022666,2.940000,0.000000,19.959999,10.000000
17:32:18,0.804784,0.250535,0.027218,0.029050,1.197601,0.220640,0.039985,0.022666,2.940000,0.000000,19.959999,10.000000
17:32:18,0.804784,0.250535,0.027218,0.029050,1.189198,0.220640,0.039985,0.022666,2.940000,0.000000,19.959999,10.000000
17:32:18,0.804784,0.250535,0.027218,0.029050,1.187098,0.220640,0.039985,0.022666,2.940000,0.000000,19.959999,10.000000
17:32:18,0.804784,0.209014,0.027218,0.029050,1.182896,0.219810,0.039985,0.022666,2.940000,0.000000,19.959999,10.000000
17:32:18,0.594722,0.167494,0.027218,0.029050,1.170293,0.218979,0.039985,0.022666,2.940000,0.000000,19.959999,10.000000
17:32:18,0.594722,0.209014,0.027218,0.156723,1.163991,0.218979,0.039985,0.023943,2.940000,0.000000,19.959999,10.000000
17:32:18,0.384659,0.209014,0.027218,0.029050,1.149286,0.218979,0.039985,0.023943,2.940000,0.000000,19.959999,10.000000
17:32:18,0.594722,0.209014,0.027218,0.029050,1.147186,0.219394,0.039985,0.023943,2.940000,0.000000,19.959999,10.000000
17:32:18,0.804784,0.209014,0.027218,0.029050,1.142985,0.221470,0.039985,0.023943,2.940000,0.000000,19.959999,10.000000
17:32:18,1.014847,0.209014,0.027218,0.029050,1.145085,0.221470,0.039985,0.023943,2.940000,0.000000,19.959999,10.000000
17:32:19,1.014847,0.250535,0.027218,0.029050,1.145085,0.221470,0.039985,0.023943,2.940000,0.000000,19.969999,10.000000
17:32:19,1.224909,0.209014,0.027218,-0.098623,1.147186,0.221470,0.039985,0.022666,2.940000,0.000000,19.969999,10.000000
17:32:19,1.224909,0.209014,0.027218,-0.098623,1.145085,0.220640,0.039985,0.022666,2.940000,0.000000,19.969999,10.000000
17:32:19,0.594722,0.209014,0.027218,0.029050,1.132481,0.220225,0.039985,0.022666,2.940000,0.000000,19.969999,10.000000
17:32:19,0.594722,0.209014,0.154884,0.667416,1.128280,0.220225,0.041262,0.029050,2.940000,0.000000,19.969999,10.000000
17:32:19,0.384659,0.209014,0.027218,0.029050,1.126180,0.220225,0.041262,0.029050,2.940000,0.000000,19.969999,10.000000
17:32:19,0.804784,0.209014,0.027218,0.029050,1.128280,0.220640,0.041262,0.029050,2.940000,0.000000,19.969999,10.000000
17:32:19,0.594722,0.209014,0.027218,0.029050,1.128280,0.220640,0.041262,0.029050,2.940000,0.000000,19.969999,10.000000
17:32:19,1.224909,0.250535,0.027218,0.029050,1.115676,0.221055,0.041262,0.029050,2.940000,0.000000,19.969999,10.000000
17:32:19,1.014847,0.250535,0.027218,0.029050,1.113576,0.221055,0.041262,0.029050,2.940000,0.000000,19.969999,10.000000
17:32:20,1.014847,0.209014,0.027218,-0.098623,1.113576,0.220640,0.041262,0.027773,2.950000,0.000000,19.980000,10.000000
17:32:20,1.014847,0.209014,0.027218,0.029050,1.109375,0.220225,0.041262,0.027773,2.950000,0.000000,19.980000,10.000000
17:32:20,1.014847,0.167494,0.154884,-0.098623,1.107274,0.219394,0.042538,0.026496,2.950000,0.000000,19.980000,10.000000
17:32:20,0.594722,0.209014,0.027218,0.029050,1.105173,0.219394,0.042538,0.026496,2.950000,0.000000,19.980000,10.000000
17:32:20,1.014847,0.209014,0.027218,0.029050,1.107274,0.219394,0.042538,0.026496,2.950000,0.000000,19.980000,10.000000
17:32:20,0.804784,0.250535,0.154884,-0.098623,1.105173,0.220225,0.043815,0.025220,2.950000,0.000000,19.980000,10.000000
17:32:20,0.804784,0.250535,0.027218,0.029050,1.088368,0.220225,0.043815,0.025220,2.950000,0.000000,19.980000,10.000000
17:32:20,0.804784,0.250535,0.027218,0.029050,1.086268,0.220225,0.043815,0.025220,2.950000,0.000000,19.980000,10.000000
17:32:20,0.804784,0.250535,0.027218,0.029050,1.086268,0.220640,0.043815,0.025220,2.950000,0.000000,19.980000,10.000000
17:32:20,1.014847,0.209014,0.027218,0.029050,1.082066,0.220225,0.043815,0.025220,2.950000,0.000000,19.980000,10.000000
17:32:21,0.594722,0.209014,0.027218,0.029050,1.077865,0.219394,0.043815,0.025220,2.950000,0.000000,19.959999,10.000000
17:32:21,0.594722,0.167494,0.027218,0.029050,1.067362,0.218564,0.043815,0.025220,2.950000,0.000000,19.959999,10.000000
17:32:21,0.594722,0.209014,0.027218,0.029050,1.063161,0.218564,0.043815,0.025220,2.950000,0.000000,19.959999,10.000000
17:32:21,1.224909,0.209014,0.027218,0.029050,1.067362,0.218979,0.043815,0.025220,2.950000,0.000000,19.959999,10.000000
17:32:21,0.804784,0.209014,0.027218,0.029050,1.067362,0.218979,0.043815,0.025220,2.950000,0.000000,19.959999,10.000000
17:32:21,1.014847,0.209014,0.027218,0.029050,1.069463,0.218979,0.043815,0.025220,2.950000,0.000000,19.959999,10.000000
17:32:21,1.434971,0.292055,0.027218,0.029050,1.073664,0.219810,0.043815,0.025220,2.950000,0.000000,19.959999,10.000000
17:32:21,0.804784,0.209014,0.027218,0.029050,1.084167,0.219810,0.043815,0.025220,2.950000,0.000000,19.959999,10.000000
17:32:21,0.804784,0.209014,0.027218,0.029050,1.082066,0.219394,0.043815,0.025220,2.950000,0.000000,19.959999,10.000000
17:32:21,0.594722,0.209014,0.027218,0.029050,1.073664,0.218979,0.043815,0.025220,2.950000,0.000000,19.959999,10.000000
17:32:22,0.594722,0.167494,0.027218,0.029050,1.056859,0.218564,0.042538,0.025220,2.950000,0.000000,19.969999,10.000000
17:32:22,0.594722,0.209014,0.027218,0.029050,1.052658,0.218564,0.042538,0.025220,2.950000,0.000000,19.969999,10.000000
17:32:22,0.594722,0.209014,0.027218,-0.098623,1.048456,0.218979,0.042538,0.023943,2.950000,0.000000,19.969999,10.000000
17:32:22,0.594722,0.250535,0.027218,0.029050,1.046356,0.219394,0.042538,0.023943,2.950000,0.000000,19.969999,10.000000
17:32:22,0.804784,0.209014,0.027218,0.156723,1.046356,0.219394,0.042538,0.025220,2.950000,0.000000,19.969999,10.000000
17:32:22,1.224909,0.250535,0.027218,0.029050,1.046356,0.219810,0.042538,0.025220,2.950000,0.000000,19.969999,10.000000
17:32:22,1.014847,0.250535,0.027218,0.029050,1.037953,0.219810,0.042538,0.025220,2.950000,0.000000,19.969999,10.000000
17:32:22,0.804784,0.250535,0.027218,0.029050,1.037953,0.219810,0.042538,0.025220,2.950000,0.000000,19.969999,10.000000
17:32:22,0.804784,0.209014,0.027218,0.029050,1.012746,0.219394,0.041262,0.025220,2.950000,0.000000,19.969999,10.000000
17:32:22,0.594722,0.167494,0.027218,0.029050,1.008545,0.218979,0.041262,0.025220,2.950000,0.000000,19.969999,10.000000
17:32:23,0.804784,0.209014,0.027218,0.029050,1.006444,0.218564,0.041262,0.025220,2.960000,0.000000,19.959999,10.000000
17:32:23,0.804784,0.250535,0.027218,0.029050,1.008545,0.219394,0.041262,0.023943,2.960000,0.000000,19.959999,10.000000
17:32:23,0.804784,0.250535,-0.228114,0.029050,1.006444,0.219810,0.038708,0.023943,2.960000,0.000000,19.959999,10.000000
17:32:23,0.804784,0.250535,0.027218,0.029050,1.004343,0.220225,0.038708,0.023943,2.960000,0.000000,19.959999,10.000000
17:32:23,1.014847,0.292055,0.027218,0.029050,1.006444,0.221055,0.037432,0.023943,2.960000,0.000000,19.959999,10.000000
17:32:23,0.804784,0.209014,0.027218,0.029050,1.006444,0.220640,0.037432,0.023943,2.960000,0.000000,19.959999,10.000000
17:32:23,0.594722,0.209014,0.027218,0.029050,0.998042,0.220225,0.037432,0.023943,2.960000,0.000000,19.959999,10.000000
17:32:23,0.594722,0.209014,0.027218,0.029050,0.991740,0.219810,0.036155,0.023943,2.960000,0.000000,19.959999,10.000000
17:32:23,0.594722,0.167494,0.027218,0.029050,0.979136,0.219394,0.036155,0.023943,2.960000,0.000000,19.959999,10.000000
17:32:23,0.594722,0.209014,0.027218,0.029050,0.970733,0.219394,0.036155,0.023943,2.960000,0.000000,19.959999,10.000000
17:32:24,0.594722,0.209014,0.027218,0.029050,0.943425,0.219810,0.036155,0.026496,2.950000,1.000000,19.950001,10.000000
17:32:24,0.594722,0.250535,0.282550,0.029050,0.939224,0.220225,0.039985,0.026496,2.950000,1.000000,19.950001,10.000000
17:32:24,0.804784,0.250535,0.027218,0.029050,0.935023,0.220640,0.039985,0.026496,2.950000,1.000000,19.950001,10.000000
17:32:24,0.804784,0.250535,0.027218,0.029050,0.935023,0.221055,0.039985,0.026496,2.950000,1.000000,19.950001,10.000000
17:32:24,0.594722,0.250535,0.027218,0.029050,0.932922,0.221055,0.038708,0.026496,2.950000,1.000000,19.950001,10.000000
17:32:24,0.594722,0.209014,0.154884,-0.098623,0.922419,0.220640,0.039985,0.025220,2.950000,1.000000,19.950001,10.000000
17:32:24,0.804784,0.167494,0.154884,0.029050,0.918218,0.219810,0.041262,0.025220,2.950000,1.000000,19.950001,10.000000
17:32:24,0.384659,0.209014,0.027218,0.029050,0.914017,0.219810,0.041262,0.025220,2.950000,1.000000,19.950001,10.000000
17:32:24,0.384659,0.209014,0.027218,0.029050,0.901413,0.220225,0.041262,0.025220,2.950000,1.000000,19.950001,10.000000
17:32:24,1.014847,0.250535,0.027218,0.029050,0.903513,0.220640,0.041262,0.023943,2.950000,1.000000,19.950001,10.000000
17:32:25,0.804784,0.250535,0.027218,0.029050,0.888809,0.221055,0.041262,0.023943,2.950000,1.000000,19.990000,10.000000
17:32:25,1.224909,0.250535,0.027218,0.029050,0.895111,0.221470,0.039985,0.023943,2.950000,1.000000,19.990000,10.000000
17:32:25,1.014847,0.250535,0.027218,-0.098623,0.893010,0.221470,0.039985,0.022666,2.950000,1.000000,19.990000,10.000000
17:32:25,0.804784,0.250535,0.027218,0.029050,0.893010,0.221886,0.039985,0.022666,2.950000,1.000000,19.990000,10.000000
17:32:25,0.594722,0.209014,0.027218,0.029050,0.888809,0.221470,0.039985,0.022666,2.950000,1.000000,19.990000,10.000000
17:32:25,0.384659,0.167494,0.027218,0.029050,0.882507,0.220640,0.039985,0.022666,2.950000,1.000000,19.990000,10.000000
17:32:25,0.384659,0.209014,0.027218,0.156723,0.876205,0.220640,0.039985,0.023943,2.950000,1.000000,19.990000,10.000000
17:32:25,0.384659,0.209014,0.027218,0.029050,0.842595,0.220640,0.039985,0.023943,2.950000,1.000000,19.990000,10.000000
17:32:25,0.594722,0.209014,0.027218,0.029050,0.838394,0.221055,0.039985,0.023943,2.950000,1.000000,19.990000,10.000000
17:32:25,0.594722,0.250535,0.154884,0.029050,0.834193,0.221470,0.041262,0.023943,2.950000,1.000000,19.990000,10.000000
17:32:26,0.804784,0.250535,0.027218,0.029050,0.836294,0.221886,0.039985,0.023943,2.940000,1.000000,0.000000,10.000000
17:32:26,0.804784,0.292055,0.027218,0.029050,0.834193,0.222716,0.039985,0.023943,2.940000,1.000000,0.000000,10.000000
17:32:26,1.014847,0.209014,0.027218,0.029050,0.834193,0.222301,0.039985,0.023943,2.940000,1.000000,0.000000,10.000000
17:32:26,0.384659,0.209014,0.027218,0.029050,0.825790,0.221886,0.038708,0.023943,2.940000,1.000000,0.000000,10.000000
17:32:26,0.594722,0.167494,0.027218,0.029050,0.815287,0.221055,0.038708,0.023943,2.940000,1.000000,0.000000,10.000000
17:32:26,0.804784,0.167494,0.027218,-0.353970,0.811086,0.220640,0.038708,0.020113,2.940000,1.000000,0.000000,10.000000
17:32:26,0.804784,0.209014,0.027218,0.029050,0.783778,0.221055,0.038708,0.020113,2.940000,1.000000,0.000000,10.000000
17:32:26,0.804784,0.250535,0.154884,0.029050,0.781677,0.221470,0.038708,0.020113,2.940000,1.000000,0.000000,10.000000
17:32:26,0.804784,0.209014,0.027218,0.029050,0.781677,0.221470,0.038708,0.020113,2.940000,1.000000,0.000000,10.000000
17:32:26,0.804784,0.250535,0.027218,0.029050,0.775375,0.221886,0.038708,0.020113,2.940000,1.000000,0.000000,10.000000
17:32:27,0.804784,0.167494,0.027218,0.029050,0.773275,0.221055,0.038708,0.020113,2.940000,1.000000,20.010000,10.000000
17:32:27,0.804784,0.209014,0.027218,0.029050,0.773275,0.220640,0.038708,0.020113,2.940000,1.000000,20.010000,10.000000
17:32:27,0.804784,0.209014,0.027218,0.029050,0.766973,0.220225,0.037432,0.020113,2.940000,1.000000,20.010000,10.000000
17:32:27,0.384659,0.167494,0.537882,0.029050,0.758570,0.219394,0.042538,0.020113,2.940000,1.000000,20.010000,10.000000
17:32:27,0.384659,0.209014,0.027218,0.029050,0.752269,0.219394,0.042538,0.020113,2.940000,1.000000,20.010000,10.000000
17:32:27,0.384659,0.250535,0.154884,0.029050,0.750168,0.219810,0.043815,0.021389,2.940000,1.000000,20.010000,10.000000
17:32:27,0.804784,0.209014,0.027218,0.029050,0.754369,0.219810,0.043815,0.023943,2.940000,1.000000,20.010000,10.000000
17:32:27,1.224909,0.209014,0.027218,0.029050,0.760671,0.219810,0.043815,0.023943,2.940000,1.000000,20.010000,10.000000
17:32:27,1.014847,0.250535,0.027218,0.029050,0.764872,0.220225,0.042538,0.023943,2.940000,1.000000,20.010000,10.000000
17:32:27,1.224909,0.250535,0.027218,0.029050,0.771174,0.220225,0.042538,0.025220,2.940000,1.000000,20.010000,10.000000
17:32:28,1.224909,0.209014,0.027218,0.029050,0.775375,0.219810,0.042538,0.025220,2.940000,1.000000,20.020000,10.000000
17:32:28,0.804784,0.167494,0.027218,0.029050,0.775375,0.218979,0.042538,0.025220,2.940000,1.000000,20.020000,10.000000
17:32:28,0.384659,0.167494,0.027218,0.029050,0.771174,0.218149,0.042538,0.025220,2.940000,1.000000,20.020000,10.000000
17:32:28,0.594722,0.209014,0.027218,0.029050,0.769074,0.218149,0.042538,0.025220,2.940000,1.000000,20.020000,10.000000
17:32:28,0.594722,0.084454,0.027218,0.029050,0.769074,0.217318,0.042538,0.025220,2.940000,1.000000,20.020000,10.000000
17:32:28,0.804784,0.250535,0.027218,0.029050,0.771174,0.217734,0.042538,0.023943,2.940000,1.000000,20.020000,10.000000
17:32:28,1.014847,0.250535,0.027218,0.029050,0.777476,0.218149,0.042538,0.023943,2.940000,1.000000,20.020000,10.000000
17:32:28,1.224909,0.250535,0.027218,0.029050,0.783778,0.218564,0.042538,0.023943,2.940000,1.000000,20.020000,10.000000
17:32:28,1.434971,0.250535,0.027218,-0.226296,0.790080,0.218979,0.042538,0.021389,2.940000,1.000000,20.020000,10.000000
17:32:28,1.014847,0.250535,0.027218,0.029050,0.790080,0.219394,0.042538,0.021389,2.940000,1.000000,20.020000,10.000000
17:32:29,1.014847,0.209014,0.027218,0.029050,0.790080,0.218979,0.042538,0.021389,2.950000,1.000000,20.010000,10.000000
17:32:29,1.224909,0.167494,0.027218,0.029050,0.790080,0.218564,0.042538,0.022666,2.950000,1.000000,20.010000,10.000000
17:32:29,1.014847,0.167494,0.027218,0.029050,0.787979,0.218149,0.042538,0.023943,2.950000,1.000000,20.010000,10.000000
17:32:29,0.804784,0.292055,0.027218,0.029050,0.790080,0.218979,0.042538,0.023943,2.950000,1.000000,20.010000,10.000000
17:32:29,0.594722,0.209014,0.027218,0.029050,0.790080,0.218979,0.041262,0.017559,2.950000,1.000000,20.010000,10.000000
17:32:29,0.804784,0.250535,0.027218,0.029050,0.794281,0.219394,0.041262,0.017559,2.950000,1.000000,20.010000,10.000000
17:32:29,0.804784,0.250535,0.027218,0.029050,0.794281,0.219810,0.041262,0.017559,2.950000,1.000000,20.010000,10.000000
17:32:29,1.645034,0.250535,0.027218,-0.226296,0.804784,0.220225,0.041262,0.015006,2.950000,1.000000,20.010000,10.000000
17:32:29,1.224909,0.250535,0.154884,0.029050,0.804784,0.220225,0.042538,0.015006,2.950000,1.000000,20.010000,10.000000
17:32:29,1.014847,0.167494,0.027218,0.029050,0.804784,0.219394,0.042538,0.015006,2.950000,1.000000,20.010000,10.000000
17:32:30,0.804784,0.167494,0.027218,0.029050,0.802684,0.218979,0.042538,0.016283,2.950000,1.000000,20.000000,10.000000
17:32:30,0.804784,0.209014,0.027218,0.029050,0.800583,0.218979,0.042538,0.016283,2.950000,1.000000,20.000000,10.000000
17:32:30,0.804784,0.292055,0.027218,0.029050,0.798482,0.220225,0.041262,0.017559,2.950000,1.000000,20.000000,10.000000
17:32:30,0.804784,0.292055,0.027218,0.029050,0.800583,0.221055,0.041262,0.017559,2.950000,1.000000,20.000000,10.000000
17:32:30,0.804784,0.250535,0.027218,0.029050,0.798482,0.221470,0.041262,0.017559,2.950000,1.000000,20.000000,10.000000
17:32:30,0.804784,0.292055,0.027218,0.029050,0.798482,0.221886,0.039985,0.018836,2.950000,1.000000,20.000000,10.000000
17:32:30,0.804784,0.292055,0.154884,0.667416,0.798482,0.222301,0.041262,0.025220,2.950000,1.000000,20.000000,10.000000
17:32:30,1.224909,0.209014,0.027218,-0.098623,0.802684,0.221886,0.041262,0.023943,2.950000,1.000000,20.000000,10.000000
17:32:30,0.804784,0.167494,0.027218,0.029050,0.802684,0.221055,0.041262,0.023943,2.950000,1.000000,20.000000,10.000000
17:32:30,0.594722,0.209014,0.027218,0.029050,0.798482,0.221055,0.041262,0.023943,2.950000,1.000000,20.000000,10.000000
17:32:31,0.594722,0.209014,0.027218,0.029050,0.798482,0.221055,0.041262,0.023943,2.950000,1.000000,19.990000,10.000000
17:32:31,0.594722,0.250535,0.027218,0.029050,0.798482,0.221886,0.041262,0.023943,2.950000,1.000000,19.990000,10.000000
17:32:31,0.804784,0.250535,0.027218,0.029050,0.800583,0.222301,0.041262,0.023943,2.950000,1.000000,19.990000,10.000000
17:32:31,1.645034,0.250535,0.027218,0.029050,0.804784,0.222716,0.041262,0.023943,2.950000,1.000000,19.990000,10.000000
17:32:31,1.014847,0.250535,0.027218,0.029050,0.806885,0.223131,0.041262,0.023943,2.950000,1.000000,19.990000,10.000000
17:32:31,0.804784,0.250535,0.027218,-0.226296,0.804784,0.223547,0.041262,0.021389,2.950000,1.000000,19.990000,10.000000
17:32:31,0.804784,0.209014,0.027218,0.029050,0.798482,0.222716,0.041262,0.021389,2.950000,1.000000,19.990000,10.000000
17:32:31,0.594722,0.167494,0.027218,0.029050,0.796382,0.222301,0.041262,0.021389,2.950000,1.000000,19.990000,10.000000
17:32:31,0.594722,0.209014,0.027218,0.029050,0.794281,0.222301,0.041262,0.021389,2.950000,1.000000,19.990000,10.000000
17:32:31,0.174597,0.209014,0.027218,0.029050,0.790080,0.222301,0.041262,0.021389,2.950000,1.000000,19.990000,10.000000
17:32:32,0.594722,0.209014,0.027218,0.029050,0.790080,0.222716,0.041262,0.021389,2.950000,1.000000,19.990000,10.000000
17:32:32,0.594722,0.209014,0.154884,0.029050,0.790080,0.222716,0.042538,0.021389,2.950000,1.000000,19.990000,10.000000
17:32:32,1.434971,0.250535,0.027218,0.029050,0.798482,0.223131,0.042538,0.022666,2.950000,1.000000,19.990000,10.000000
17:32:32,1.014847,0.250535,0.027218,0.029050,0.802684,0.223131,0.042538,0.022666,2.950000,1.000000,19.990000,10.000000
17:32:32,0.804784,0.250535,0.027218,0.029050,0.802684,0.223547,0.042538,0.021389,2.950000,1.000000,19.990000,10.000000
17:32:32,0.594722,0.209014,0.027218,0.029050,0.796382,0.223131,0.042538,0.021389,2.950000,1.000000,19.990000,10.000000
17:32:32,0.594722,0.167494,0.154884,0.029050,0.792180,0.222301,0.043815,0.021389,2.950000,1.000000,19.990000,10.000000
17:32:32,0.384659,0.209014,0.027218,0.029050,0.787979,0.221886,0.043815,0.021389,2.950000,1.000000,19.990000,10.000000
17:32:32,0.384659,0.209014,0.027218,0.029050,0.783778,0.221886,0.043815,0.021389,2.950000,1.000000,19.990000,10.000000
17:32:32,0.804784,0.250535,0.027218,0.029050,0.785879,0.222716,0.043815,0.021389,2.950000,1.000000,19.990000,10.000000
17:32:33,1.224909,0.209014,0.027218,-0.098623,0.790080,0.222716,0.043815,0.020113,2.940000,1.000000,0.000000,10.000000
17:32:33,1.434971,0.250535,0.027218,0.029050,0.796382,0.222716,0.043815,0.020113,2.940000,1.000000,0.000000,10.000000
17:32:33,1.224909,0.209014,0.027218,-0.098623,0.800583,0.222301,0.046368,0.018836,2.940000,1.000000,0.000000,10.000000
17:32:33,1.434971,0.250535,0.027218,0.029050,0.806885,0.222301,0.046368,0.018836,2.940000,1.000000,0.000000,10.000000
17:32:33,0.804784,0.209014,0.027218,0.029050,0.804784,0.221470,0.046368,0.018836,2.940000,1.000000,0.000000,10.000000
17:32:33,1.224909,0.167494,-0.228114,0.029050,0.808985,0.221055,0.043815,0.018836,2.940000,1.000000,0.000000,10.000000
17:32:33,0.804784,0.209014,0.027218,0.029050,0.811086,0.221055,0.043815,0.018836,2.940000,1.000000,0.000000,10.000000
17:32:33,0.594722,0.209014,0.027218,0.029050,0.811086,0.221055,0.043815,0.018836,2.940000,1.000000,0.000000,10.000000
17:32:33,0.804784,0.209014,0.027218,0.029050,0.813187,0.221470,0.043815,0.018836,2.940000,1.000000,0.000000,10.000000
17:32:33,0.594722,0.250535,0.027218,0.029050,0.813187,0.221886,0.043815,0.018836,2.940000,1.000000,0.000000,10.000000
17:32:34,0.804784,0.250535,0.027218,0.029050,0.815287,0.222301,0.043815,0.018836,0.000000,1.000000,19.990000,10.000000
17:32:34,0.804784,0.250535,0.027218,0.029050,0.817388,0.222301,0.041262,0.018836,0.000000,1.000000,19.990000,10.000000
17:32:34,0.594722,0.209014,0.027218,0.029050,0.815287,0.221886,0.041262,0.018836,0.000000,1.000000,19.990000,10.000000
17:32:34,0.804784,0.209014,0.027218,0.029050,0.815287,0.221470,0.041262,0.018836,0.000000,1.000000,19.990000,10.000000
17:32:34,1.014847,0.167494,0.027218,0.029050,0.819489,0.220640,0.041262,0.018836,0.000000,1.000000,19.990000,10.000000
17:32:34,0.804784,0.209014,0.027218,0.029050,0.821589,0.220640,0.039985,0.020113,0.000000,1.000000,19.990000,10.000000
17:32:34,0.384659,0.209014,0.027218,0.029050,0.817388,0.221055,0.038708,0.020113,0.000000,1.000000,19.990000,10.000000
17:32:34,0.384659,0.167494,0.027218,0.029050,0.817388,0.220640,0.038708,0.020113,0.000000,1.000000,19.990000,10.000000
17:32:34,0.804784,0.250535,0.027218,0.029050,0.821589,0.221055,0.038708,0.020113,0.000000,1.000000,19.990000,10.000000
17:32:34,1.434971,0.250535,0.027218,0.029050,0.825790,0.221055,0.038708,0.020113,0.000000,1.000000,19.990000,10.000000
17:32:35,1.014847,0.292055,0.027218,0.029050,0.827891,0.221470,0.038708,0.020113,2.940000,1.000000,19.980000,10.000000
17:32:35,1.434971,0.250535,0.154884,0.029050,0.829992,0.221470,0.039985,0.020113,2.940000,1.000000,19.980000,10.000000
17:32:35,1.014847,0.209014,0.027218,0.029050,0.829992,0.221055,0.039985,0.021389,2.940000,1.000000,19.980000,10.000000
17:32:35,1.434971,0.167494,0.282550,0.029050,0.836294,0.220225,0.042538,0.021389,2.940000,1.000000,19.980000,10.000000
17:32:35,1.014847,0.209014,0.027218,0.029050,0.840495,0.220225,0.042538,0.021389,2.940000,1.000000,19.980000,10.000000
17:32:35,1.014847,0.209014,0.027218,0.029050,0.846797,0.220640,0.042538,0.021389,2.940000,1.000000,19.980000,10.000000
17:32:35,1.014847,0.209014,0.027218,0.029050,0.853099,0.220640,0.042538,0.020113,2.940000,1.000000,19.980000,10.000000
17:32:35,1.434971,0.250535,0.027218,0.029050,0.863602,0.221055,0.042538,0.020113,2.940000,1.000000,19.980000,10.000000
17:32:35,1.014847,0.250535,0.027218,0.029050,0.867803,0.221470,0.042538,0.020113,2.940000,1.000000,19.980000,10.000000
17:32:35,1.224909,0.250535,0.027218,0.029050,0.874105,0.221470,0.041262,0.020113,2.940000,1.000000,19.980000,10.000000
17:32:36,1.224909,0.209014,0.027218,0.029050,0.878306,0.221055,0.041262,0.020113,2.940000,0.000000,19.969999,10.000000
17:32:36,1.224909,0.209014,0.027218,0.029050,0.882507,0.220225,0.041262,0.020113,2.940000,0.000000,19.969999,10.000000
17:32:36,1.224909,0.167494,0.282550,0.029050,0.884608,0.219810,0.043815,0.020113,2.940000,0.000000,19.969999,10.000000
17:32:36,0.384659,0.209014,0.027218,0.029050,0.884608,0.219810,0.043815,0.020113,2.940000,0.000000,19.969999,10.000000
17:32:36,0.594722,0.250535,0.027218,0.029050,0.884608,0.220640,0.043815,0.020113,2.940000,0.000000,19.969999,10.000000
17:32:36,0.594722,0.250535,0.027218,0.029050,0.882507,0.221470,0.043815,0.023943,2.940000,0.000000,19.969999,10.000000
17:32:36,0.804784,0.250535,0.027218,0.029050,0.882507,0.221886,0.043815,0.023943,2.940000,0.000000,19.969999,10.000000
17:32:36,1.434971,0.250535,0.027218,0.029050,0.888809,0.221886,0.042538,0.023943,2.940000,0.000000,19.969999,10.000000
17:32:36,1.434971,0.209014,0.027218,0.029050,0.895111,0.221886,0.042538,0.023943,2.940000,0.000000,19.969999,10.000000
17:32:36,0.804784,0.209014,0.027218,0.029050,0.895111,0.221470,0.042538,0.023943,2.940000,0.000000,19.969999,10.000000
17:32:37,0.804784,0.167494,0.027218,0.029050,0.895111,0.221470,0.042538,0.023943,2.950000,1.000000,19.980000,10.000000
17:32:37,1.855096,0.167494,0.154884,0.029050,0.905614,0.221055,0.043815,0.023943,2.950000,1.000000,19.980000,10.000000
17:32:37,0.594722,0.209014,0.027218,0.029050,0.903513,0.221055,0.043815,0.023943,2.950000,1.000000,19.980000,10.000000
17:32:37,0.594722,0.292055,0.027218,0.029050,0.905614,0.222301,0.038708,0.023943,2.950000,1.000000,19.980000,10.000000
17:32:37,0.804784,0.209014,0.027218,0.029050,0.909815,0.222301,0.038708,0.023943,2.950000,1.000000,19.980000,10.000000
17:32:37,1.645034,0.250535,0.027218,0.029050,0.922419,0.222301,0.037432,0.023943,2.950000,1.000000,19.980000,10.000000
17:32:37,1.224909,0.250535,0.027218,-0.098623,0.926620,0.222716,0.037432,0.022666,2.950000,1.000000,19.980000,10.000000
17:32:37,1.224909,0.209014,0.154884,0.029050,0.926620,0.222716,0.038708,0.022666,2.950000,1.000000,19.980000,10.000000
17:32:37,1.645034,0.250535,0.154884,0.029050,0.932922,0.222716,0.039985,0.022666,2.950000,1.000000,19.980000,10.000000
17:32:37,1.434971,0.167494,0.027218,0.029050,0.935023,0.221886,0.039985,0.022666,2.950000,1.000000,19.980000,10.000000
17:32:38,0.804784,0.209014,0.027218,0.029050,0.930822,0.221886,0.039985,0.022666,2.950000,1.000000,19.980000,10.000000
17:32:38,0.594722,0.209014,0.027218,0.029050,0.928721,0.222301,0.039985,0.022666,2.950000,1.000000,19.980000,10.000000
17:32:38,0.804784,0.292055,0.027218,0.029050,0.932922,0.223547,0.039985,0.022666,2.950000,1.000000,19.980000,10.000000
17:32:38,1.855096,0.250535,0.027218,0.029050,0.945526,0.223962,0.039985,0.022666,2.950000,1.000000,19.980000,10.000000
17:32:38,1.014847,0.250535,0.027218,0.029050,0.949727,0.225623,0.039985,0.022666,2.950000,1.000000,19.980000,10.000000
17:32:38,1.014847,0.250535,0.027218,0.029050,0.951828,0.225623,0.039985,0.022666,2.950000,1.000000,19.980000,10.000000
17:32:38,1.224909,0.250535,-0.100448,0.029050,0.953928,0.225623,0.038708,0.022666,2.950000,1.000000,19.980000,10.000000
17:32:38,2.695345,0.209014,0.027218,0.029050,0.968633,0.225207,0.038708,0.022666,2.950000,1.000000,19.980000,10.000000
17:32:38,3.115470,0.167494,0.027218,0.029050,0.985438,0.224377,0.038708,0.025220,2.950000,1.000000,19.980000,10.000000
17:32:38,1.224909,0.209014,0.027218,0.029050,0.987538,0.223962,0.038708,0.025220,2.950000,1.000000,19.980000,10.000000
17:32:39,1.224909,0.209014,-0.100448,0.029050,0.989639,0.223962,0.037432,0.025220,2.950000,1.000000,19.980000,10.000000
17:32:39,0.594722,0.250535,0.027218,0.029050,0.983337,0.224792,0.037432,0.025220,2.950000,1.000000,19.980000,10.000000
17:32:39,1.014847,0.209014,0.027218,0.029050,0.983337,0.225207,0.037432,0.025220,2.950000,1.000000,19.980000,10.000000
17:32:39,1.014847,0.250535,0.027218,0.029050,0.985438,0.224792,0.037432,0.025220,2.950000,1.000000,19.980000,10.000000
17:32:39,1.014847,0.250535,0.027218,0.029050,0.989639,0.225207,0.037432,0.025220,2.950000,1.000000,19.980000,10.000000
17:32:39,1.224909,0.209014,0.027218,0.029050,0.993840,0.224792,0.037432,0.025220,2.950000,1.000000,19.980000,10.000000
17:32:39,0.594722,0.209014,0.027218,0.029050,0.991740,0.224377,0.037432,0.025220,2.950000,1.000000,19.980000,10.000000
17:32:39,0.594722,0.167494,0.027218,0.029050,0.981237,0.223547,0.037432,0.027773,2.950000,1.000000,19.980000,10.000000
17:32:39,1.014847,0.167494,0.027218,0.029050,0.979136,0.222716,0.036155,0.027773,2.950000,1.000000,19.980000,10.000000
17:32:39,0.594722,0.209014,0.027218,0.029050,0.974935,0.223131,0.036155,0.027773,2.950000,1.000000,19.980000,10.000000
17:32:40,1.014847,0.167494,0.027218,0.029050,0.977035,0.223131,0.036155,0.027773,2.950000,0.000000,19.969999,10.000000
17:32:40,1.014847,0.250535,0.027218,0.029050,0.979136,0.223547,0.036155,0.027773,2.950000,0.000000,19.969999,10.000000
17:32:40,1.855096,0.250535,0.154884,0.029050,0.989639,0.223131,0.037432,0.027773,2.950000,0.000000,19.969999,10.000000
17:32:40,1.014847,0.250535,0.027218,-0.098623,0.991740,0.222716,0.037432,0.026496,2.950000,0.000000,19.969999,10.000000
17:32:40,1.014847,0.250535,0.027218,0.029050,0.993840,0.222716,0.037432,0.026496,2.950000,0.000000,19.969999,10.000000
17:32:40,0.804784,0.209014,0.027218,0.029050,0.993840,0.221886,0.037432,0.026496,2.950000,0.000000,19.969999,10.000000
17:32:40,0.804784,0.167494,0.027218,0.029050,0.993840,0.220640,0.036155,0.020113,2.950000,0.000000,19.969999,10.000000
17:32:40,0.594722,0.209014,0.027218,0.029050,0.987538,0.220640,0.036155,0.021389,2.950000,0.000000,19.969999,10.000000
17:32:40,0.594722,0.209014,0.027218,0.029050,0.985438,0.221055,0.036155,0.021389,2.950000,0.000000,19.969999,10.000000
17:32:40,0.804784,0.250535,0.027218,0.029050,0.987538,0.221470,0.036155,0.021389,2.950000,0.000000,19.969999,10.000000
17:32:41,0.804784,0.250535,0.027218,0.029050,0.989639,0.221886,0.036155,0.021389,2.940000,1.000000,19.990000,10.000000
17:32:41,1.224909,0.250535,0.154884,0.029050,0.995941,0.221886,0.037432,0.021389,2.940000,1.000000,19.990000,10.000000
17:32:41,1.014847,0.250535,0.027218,0.029050,0.998042,0.221886,0.037432,0.021389,2.940000,1.000000,19.990000,10.000000
17:32:41,1.014847,0.209014,0.027218,0.029050,0.991740,0.221470,0.037432,0.021389,2.940000,1.000000,19.990000,10.000000
17:32:41,0.804784,0.209014,0.027218,0.029050,0.989639,0.221055,0.037432,0.021389,2.940000,1.000000,19.990000,10.000000
17:32:41,1.224909,0.167494,0.027218,0.029050,0.993840,0.220225,0.037432,0.023943,2.940000,1.000000,19.990000,10.000000
17:32:41,0.804784,0.209014,0.027218,0.029050,0.993840,0.220225,0.037432,0.023943,2.940000,1.000000,19.990000,10.000000
17:32:41,0.594722,0.209014,0.027218,0.029050,0.993840,0.220640,0.037432,0.023943,2.940000,1.000000,19.990000,10.000000
17:32:41,0.804784,0.250535,0.027218,0.029050,0.995941,0.221055,0.037432,0.023943,2.940000,1.000000,19.990000,10.000000
17:32:41,0.594722,0.250535,0.027218,0.029050,1.000142,0.221470,0.037432,0.023943,2.940000,1.000000,19.990000,10.000000
17:32:42,1.014847,0.250535,0.027218,0.029050,1.004343,0.221886,0.037432,0.023943,2.940000,1.000000,0.000000,10.000000
17:32:42,0.804784,0.292055,0.027218,0.029050,1.006444,0.222716,0.036155,0.023943,2.940000,1.000000,0.000000,10.000000
17:32:42,0.804784,0.209014,0.027218,0.029050,1.000142,0.222301,0.036155,0.023943,2.940000,1.000000,0.000000,10.000000
17:32:42,0.594722,0.209014,0.027218,0.029050,0.995941,0.221886,0.036155,0.023943,2.940000,1.000000,0.000000,10.000000
17:32:42,0.594722,0.167494,0.154884,0.029050,0.993840,0.221055,0.037432,0.023943,2.940000,1.000000,0.000000,10.000000
17:32:42,0.384659,0.209014,0.027218,0.029050,0.991740,0.221055,0.037432,0.023943,2.940000,1.000000,0.000000,10.000000
17:32:42,0.594722,0.209014,0.027218,0.029050,0.991740,0.221470,0.036155,0.023943,2.940000,1.000000,0.000000,10.000000
17:32:42,0.594722,0.250535,0.027218,0.029050,0.993840,0.221886,0.036155,0.023943,2.940000,1.000000,0.000000,10.000000
17:32:42,0.804784,0.250535,0.027218,0.029050,0.998042,0.222301,0.036155,0.023943,2.940000,1.000000,0.000000,10.000000
17:32:42,1.224909,0.250535,0.027218,0.029050,1.002243,0.222301,0.036155,0.023943,2.940000,1.000000,0.000000,10.000000
17:32:43,0.804784,0.250535,0.027218,0.029050,0.998042,0.222716,0.036155,0.025220,2.940000,1.000000,19.990000,10.000000
17:32:43,0.804784,0.209014,0.027218,0.029050,0.991740,0.222301,0.036155,0.025220,2.940000,1.000000,19.990000,10.000000
17:32:43,0.804784,0.167494,0.027218,0.029050,0.987538,0.221886,0.036155,0.026496,2.940000,1.000000,19.990000,10.000000
17:32:43,0.594722,0.167494,0.027218,0.029050,0.979136,0.221055,0.036155,0.026496,2.940000,1.000000,19.990000,10.000000
17:32:43,0.594722,0.209014,0.027218,0.029050,0.977035,0.221055,0.036155,0.026496,2.940000,1.000000,19.990000,10.000000
17:32:43,0.594722,0.209014,0.027218,0.029050,0.970733,0.221470,0.038708,0.026496,2.940000,1.000000,19.990000,10.000000
17:32:43,0.594722,0.250535,0.154884,0.029050,0.968633,0.221886,0.039985,0.026496,2.940000,1.000000,19.990000,10.000000
17:32:43,0.804784,0.250535,0.027218,0.029050,0.970733,0.222301,0.039985,0.026496,2.940000,1.000000,19.990000,10.000000
17:32:43,0.804784,0.292055,0.027218,0.029050,0.970733,0.223131,0.039985,0.026496,2.940000,1.000000,19.990000,10.000000
17:32:43,0.804784,0.209014,0.027218,0.029050,0.972834,0.222716,0.039985,0.026496,2.940000,1.000000,19.990000,10.000000
17:32:44,0.804784,0.209014,0.027218,0.029050,0.972834,0.222301,0.039985,0.026496,2.940000,1.000000,19.990000,10.000000
17:32:44,0.594722,0.167494,0.027218,0.029050,0.970733,0.221470,0.039985,0.026496,2.940000,1.000000,19.990000,10.000000
17:32:44,0.594722,0.167494,0.027218,0.029050,0.970733,0.221055,0.039985,0.026496,2.940000,1.000000,19.990000,10.000000
17:32:44,0.594722,0.209014,0.027218,0.029050,0.968633,0.221055,0.039985,0.026496,2.940000,1.000000,19.990000,10.000000
17:32:44,0.594722,0.209014,0.027218,0.029050,0.964432,0.221470,0.039985,0.026496,2.940000,1.000000,19.990000,10.000000
17:32:44,0.804784,0.250535,0.154884,0.029050,0.964432,0.221886,0.041262,0.026496,2.940000,1.000000,19.990000,10.000000
17:32:44,0.594722,0.250535,0.027218,0.029050,0.966532,0.222301,0.041262,0.026496,2.940000,1.000000,19.990000,10.000000
17:32:44,0.804784,0.250535,0.027218,0.029050,0.970733,0.223131,0.041262,0.026496,2.940000,1.000000,19.990000,10.000000
17:32:44,0.804784,0.250535,0.027218,0.029050,0.970733,0.223131,0.041262,0.026496,2.940000,1.000000,19.990000,10.000000
17:32:44,0.594722,0.209014,0.027218,0.029050,0.962331,0.222716,0.041262,0.026496,2.940000,1.000000,19.990000,10.000000
17:32:45,0.594722,0.209014,0.027218,0.029050,0.958130,0.221886,0.041262,0.026496,2.940000,1.000000,19.980000,10.000000
17:32:45,0.594722,0.209014,0.027218,0.029050,0.949727,0.221470,0.039985,0.026496,2.940000,1.000000,19.980000,10.000000
17:32:45,0.594722,0.209014,0.027218,0.029050,0.945526,0.221470,0.039985,0.026496,2.940000,1.000000,19.980000,10.000000
17:32:45,1.224909,0.209014,0.027218,0.029050,0.943425,0.221886,0.037432,0.026496,2.940000,1.000000,19.980000,10.000000
17:32:45,0.594722,0.250535,0.027218,0.029050,0.939224,0.222301,0.037432,0.026496,2.940000,1.000000,19.980000,10.000000
17:32:45,0.804784,0.250535,0.027218,0.029050,0.937123,0.222716,0.037432,0.026496,2.940000,1.000000,19.980000,10.000000
17:32:45,1.014847,0.250535,0.027218,0.029050,0.937123,0.223131,0.037432,0.026496,2.940000,1.000000,19.980000,10.000000
17:32:45,0.804784,0.209014,0.027218,0.029050,0.930822,0.222716,0.037432,0.026496,2.940000,1.000000,19.980000,10.000000
17:32:45,0.804784,0.250535,0.027218,0.029050,0.928721,0.222716,0.037432,0.026496,2.940000,1.000000,19.980000,10.000000
17:32:45,0.594722,0.167494,0.027218,0.029050,0.922419,0.221886,0.037432,0.026496,2.940000,1.000000,19.980000,10.000000
17:32:46,0.594722,0.167494,0.027218,0.029050,0.916117,0.221470,0.037432,0.026496,2.950000,0.000000,19.959999,10.000000
17:32:46,0.384659,0.209014,0.027218,0.284396,0.907715,0.221470,0.037432,0.029050,2.950000,0.000000,19.959999,10.000000
17:32:46,0.594722,0.209014,0.027218,0.029050,0.901413,0.221886,0.034878,0.029050,2.950000,0.000000,19.959999,10.000000
17:32:46,0.804784,0.250535,0.027218,0.029050,0.905614,0.222301,0.034878,0.029050,2.950000,0.000000,19.959999,10.000000
17:32:46,1.014847,0.250535,0.027218,0.029050,0.909815,0.222301,0.034878,0.029050,2.950000,0.000000,19.959999,10.000000
17:32:46,1.014847,0.250535,0.027218,0.029050,0.914017,0.222301,0.034878,0.029050,2.950000,0.000000,19.959999,10.000000
17:32:46,1.014847,0.209014,0.027218,0.029050,0.916117,0.221886,0.034878,0.029050,2.950000,0.000000,19.959999,10.000000
17:32:46,1.014847,0.209014,0.027218,0.029050,0.911916,0.221470,0.034878,0.029050,2.950000,0.000000,19.959999,10.000000
17:32:46,0.804784,0.167494,0.027218,0.029050,0.905614,0.221055,0.034878,0.029050,2.950000,0.000000,19.959999,10.000000
17:32:46,0.804784,0.209014,0.154884,0.029050,0.905614,0.221055,0.036155,0.029050,2.950000,0.000000,19.959999,10.000000
17:32:47,0.594722,0.250535,0.027218,0.412069,0.903513,0.221886,0.036155,0.032880,2.940000,10483157265057518000000000000000000.000000,19.950001,10.000000
17:32:47,0.804784,0.209014,0.027218,0.029050,0.893010,0.222301,0.034878,0.032880,2.940000,10483157265057518000000000000000000.000000,19.950001,10.000000
17:32:47,0.804784,0.209014,0.027218,0.029050,0.895111,0.222301,0.034878,0.032880,2.940000,10483157265057518000000000000000000.000000,19.950001,10.000000
17:32:47,1.014847,0.250535,0.027218,0.029050,0.899312,0.221886,0.034878,0.032880,2.940000,10483157265057518000000000000000000.000000,19.950001,10.000000
17:32:47,0.804784,0.250535,0.027218,0.029050,0.899312,0.222301,0.034878,0.032880,2.940000,10483157265057518000000000000000000.000000,19.950001,10.000000
17:32:47,0.804784,0.209014,0.027218,0.029050,0.890910,0.221886,0.034878,0.032880,2.940000,10483157265057518000000000000000000.000000,19.950001,10.000000
17:32:47,0.804784,0.209014,0.027218,0.029050,0.886708,0.221470,0.034878,0.034157,2.940000,10483157265057518000000000000000000.000000,19.950001,10.000000
17:32:47,0.594722,0.209014,0.027218,0.029050,0.880407,0.221470,0.033602,0.034157,2.940000,10483157265057518000000000000000000.000000,19.950001,10.000000
17:32:47,0.804784,0.209014,0.027218,0.029050,0.872004,0.221055,0.032325,0.034157,2.940000,10483157265057518000000000000000000.000000,19.950001,10.000000
17:32:47,0.804784,0.209014,0.027218,-0.353970,0.865702,0.221470,0.032325,0.030327,2.940000,10483157265057518000000000000000000.000000,19.950001,10.000000
17:32:48,0.594722,0.209014,0.154884,0.029050,0.863602,0.221470,0.033602,0.030327,2.940000,0.000000,19.969999,10.000000
17:32:48,1.014847,0.209014,-0.100448,0.029050,0.867803,0.221470,0.032325,0.030327,2.940000,0.000000,19.969999,10.000000
17:32:48,1.014847,0.250535,0.027218,0.029050,0.869903,0.221055,0.032325,0.030327,2.940000,0.000000,19.969999,10.000000
17:32:48,0.804784,0.250535,0.027218,0.029050,0.859400,0.221055,0.032325,0.030327,2.940000,0.000000,19.969999,10.000000
17:32:48,0.804784,0.209014,0.027218,0.029050,0.857300,0.220640,0.032325,0.030327,2.940000,0.000000,19.969999,10.000000
17:32:48,0.594722,0.209014,0.027218,0.029050,0.853099,0.220225,0.032325,0.030327,2.940000,0.000000,19.969999,10.000000
17:32:48,0.594722,0.167494,0.027218,0.029050,0.846797,0.219394,0.033602,0.030327,2.940000,0.000000,19.969999,10.000000
17:32:48,0.594722,0.209014,0.027218,0.029050,0.825790,0.219394,0.033602,0.030327,2.940000,0.000000,19.969999,10.000000
17:32:48,0.594722,0.209014,0.027218,-0.226296,0.800583,0.219810,0.033602,0.027773,2.940000,0.000000,19.969999,10.000000
17:32:48,0.804784,0.250535,0.027218,0.029050,0.796382,0.220225,0.033602,0.027773,2.940000,0.000000,19.969999,10.000000
17:32:49,0.804784,0.250535,0.027218,0.029050,0.792180,0.220640,0.034878,0.027773,0.000000,0.000000,19.969999,10.000000
17:32:49,0.804784,0.250535,0.027218,0.029050,0.794281,0.220640,0.034878,0.027773,0.000000,0.000000,19.969999,10.000000
17:32:49,0.804784,0.209014,0.027218,0.029050,0.792180,0.220640,0.034878,0.027773,0.000000,0.000000,19.969999,10.000000
17:32:49,0.804784,0.250535,0.027218,0.029050,0.790080,0.220640,0.034878,0.027773,0.000000,0.000000,19.969999,10.000000
17:32:49,0.804784,0.209014,0.027218,0.029050,0.787979,0.220225,0.034878,0.027773,0.000000,0.000000,19.969999,10.000000
17:32:49,0.804784,0.167494,0.027218,0.029050,0.783778,0.219810,0.034878,0.027773,0.000000,0.000000,19.969999,10.000000
17:32:49,0.804784,0.209014,0.027218,0.029050,0.785879,0.219810,0.034878,0.027773,0.000000,0.000000,19.969999,10.000000
17:32:49,0.594722,0.209014,0.027218,-0.098623,0.785879,0.220225,0.034878,0.026496,0.000000,0.000000,19.969999,10.000000
17:32:49,0.594722,0.209014,0.154884,0.029050,0.781677,0.220640,0.036155,0.026496,0.000000,0.000000,19.969999,10.000000
17:32:49,0.594722,0.250535,-0.100448,0.029050,0.781677,0.221055,0.034878,0.026496,0.000000,0.000000,19.969999,10.000000
17:32:50,0.804784,0.250535,0.027218,0.029050,0.779577,0.221886,0.034878,0.026496,2.930000,1.000000,19.969999,10.000000
17:32:50,1.224909,0.209014,0.027218,0.029050,0.781677,0.221470,0.034878,0.026496,2.930000,1.000000,19.969999,10.000000
17:32:50,1.014847,0.209014,0.027218,0.029050,0.773275,0.221055,0.033602,0.026496,2.930000,1.000000,19.969999,10.000000
17:32:50,0.804784,0.209014,0.027218,0.029050,0.771174,0.220640,0.033602,0.027773,2.930000,1.000000,19.969999,10.000000
17:32:50,0.804784,0.209014,0.027218,0.029050,0.769074,0.220225,0.033602,0.027773,2.930000,1.000000,19.969999,10.000000
17:32:50,1.224909,0.209014,0.027218,-0.098623,0.773275,0.220225,0.033602,0.026496,2.930000,1.000000,19.969999,10.000000
17:32:50,0.804784,0.209014,0.027218,-0.098623,0.773275,0.220640,0.033602,0.025220,2.930000,1.000000,19.969999,10.000000
17:32:50,0.594722,0.209014,0.027218,0.029050,0.773275,0.220640,0.033602,0.025220,2.930000,1.000000,19.969999,10.000000
17:32:50,0.594722,0.250535,-0.355779,0.029050,0.773275,0.221055,0.029772,0.025220,2.930000,1.000000,19.969999,10.000000
17:32:50,0.804784,0.250535,0.027218,0.029050,0.773275,0.221055,0.029772,0.025220,2.930000,1.000000,19.969999,10.000000
17:32:51,0.804784,0.250535,0.027218,0.029050,0.773275,0.221055,0.029772,0.025220,2.930000,1.000000,19.969999,10.000000
17:32:51,0.804784,0.209014,0.027218,0.029050,0.769074,0.220640,0.028495,0.025220,2.930000,1.000000,19.969999,10.000000
17:32:51,0.804784,0.167494,0.027218,0.029050,0.766973,0.219810,0.028495,0.025220,2.930000,1.000000,19.969999,10.000000
17:32:51,0.804784,0.209014,0.027218,-0.098623,0.764872,0.219810,0.028495,0.023943,2.930000,1.000000,19.969999,10.000000
17:32:51,0.384659,0.209014,0.027218,0.029050,0.760671,0.219810,0.028495,0.023943,2.930000,1.000000,19.969999,10.000000
17:32:51,0.594722,0.250535,0.027218,0.029050,0.754369,0.220640,0.028495,0.023943,2.930000,1.000000,19.969999,10.000000
17:32:51,0.594722,0.209014,0.027218,0.029050,0.752269,0.220640,0.028495,0.023943,2.930000,1.000000,19.969999,10.000000
17:32:51,0.804784,0.250535,0.027218,0.029050,0.754369,0.221055,0.028495,0.023943,2.930000,1.000000,19.969999,10.000000
17:32:51,0.804784,0.250535,0.027218,0.029050,0.754369,0.221055,0.028495,0.023943,2.930000,1.000000,19.969999,10.000000
17:32:51,0.594722,0.209014,0.027218,0.029050,0.754369,0.220640,0.028495,0.023943,2.930000,1.000000,19.969999,10.000000
17:32:52,0.594722,0.209014,0.154884,0.029050,0.750168,0.220225,0.029772,0.023943,2.940000,1.000000,19.990000,10.000000
17:32:52,0.384659,0.209014,0.027218,0.029050,0.745967,0.219394,0.029772,0.023943,2.940000,1.000000,19.990000,10.000000
17:32:52,0.384659,0.209014,0.027218,0.029050,0.741765,0.219394,0.029772,0.023943,2.940000,1.000000,19.990000,10.000000
17:32:52,0.384659,0.167494,0.027218,0.029050,0.739665,0.218979,0.029772,0.023943,2.940000,1.000000,19.990000,10.000000
17:32:52,0.594722,0.209014,0.027218,0.029050,0.739665,0.219394,0.028495,0.023943,2.940000,1.000000,19.990000,10.000000
17:32:52,0.594722,0.209014,0.027218,0.029050,0.741765,0.219394,0.028495,0.023943,2.940000,1.000000,19.990000,10.000000
17:32:52,0.804784,0.209014,0.154884,0.029050,0.743866,0.219394,0.029772,0.023943,2.940000,1.000000,19.990000,10.000000
17:32:52,0.804784,0.250535,0.154884,0.029050,0.745967,0.219394,0.031048,0.023943,2.940000,1.000000,19.990000,10.000000
17:32:52,0.804784,0.209014,0.027218,0.029050,0.745967,0.218979,0.031048,0.023943,2.940000,1.000000,19.990000,10.000000
17:32:52,0.594722,0.209014,0.027218,0.029050,0.739665,0.218564,0.031048,0.023943,2.940000,1.000000,19.990000,10.000000
17:32:53,0.594722,0.167494,0.027218,0.029050,0.737564,0.217734,0.031048,0.023943,2.950000,1.000000,20.000000,10.000000
17:32:53,0.384659,0.167494,0.027218,0.029050,0.733363,0.217318,0.031048,0.023943,2.950000,1.000000,20.000000,10.000000
17:32:53,0.384659,0.209014,0.027218,0.029050,0.729162,0.217734,0.031048,0.023943,2.950000,1.000000,20.000000,10.000000
17:32:53,0.594722,0.209014,0.027218,0.029050,0.729162,0.218149,0.031048,0.023943,2.950000,1.000000,20.000000,10.000000
17:32:53,0.594722,0.209014,0.027218,0.029050,0.729162,0.218149,0.031048,0.023943,2.950000,1.000000,20.000000,10.000000
17:32:53,0.804784,0.250535,0.027218,0.029050,0.731262,0.218564,0.031048,0.023943,2.950000,1.000000,20.000000,10.000000
17:32:53,0.594722,0.250535,0.027218,0.029050,0.731262,0.218564,0.029772,0.023943,2.950000,1.000000,20.000000,10.000000
17:32:53,0.594722,0.167494,0.027218,0.029050,0.729162,0.217734,0.029772,0.023943,2.950000,1.000000,20.000000,10.000000
17:32:53,0.594722,0.292055,0.027218,0.029050,0.727061,0.217734,0.029772,0.023943,2.950000,1.000000,20.000000,10.000000
17:32:53,0.384659,0.167494,0.027218,0.029050,0.722860,0.217318,0.029772,0.023943,2.950000,1.000000,20.000000,10.000000
17:32:54,0.174597,0.209014,0.027218,0.029050,0.716558,0.217318,0.029772,0.023943,2.950000,1.000000,19.990000,10.000000
17:32:54,0.384659,0.209014,0.027218,0.156723,0.714457,0.217734,0.029772,0.025220,2.950000,1.000000,19.990000,10.000000
17:32:54,0.384659,0.250535,0.027218,0.029050,0.712357,0.218564,0.029772,0.025220,2.950000,1.000000,19.990000,10.000000
17:32:54,0.594722,0.250535,0.027218,0.029050,0.712357,0.218979,0.029772,0.025220,2.950000,1.000000,19.990000,10.000000
17:32:54,0.804784,0.250535,0.027218,0.029050,0.714457,0.219394,0.029772,0.025220,2.950000,1.000000,19.990000,10.000000
17:32:54,0.804784,0.250535,0.154884,0.029050,0.714457,0.219394,0.029772,0.025220,2.950000,1.000000,19.990000,10.000000
17:32:54,0.804784,0.209014,0.027218,0.029050,0.716558,0.218979,0.029772,0.025220,2.950000,1.000000,19.990000,10.000000
17:32:54,0.594722,0.167494,0.027218,0.029050,0.714457,0.218149,0.029772,0.025220,2.950000,1.000000,19.990000,10.000000
17:32:54,0.384659,0.167494,0.154884,0.029050,0.710256,0.217318,0.031048,0.025220,2.950000,1.000000,19.990000,10.000000
17:32:54,0.384659,0.209014,0.027218,0.029050,0.708155,0.217318,0.031048,0.025220,2.950000,1.000000,19.990000,10.000000
17:32:55,0.594722,0.209014,0.027218,0.029050,0.708155,0.217318,0.031048,0.025220,2.940000,1.000000,19.980000,10.000000
17:32:55,0.594722,0.209014,0.027218,0.029050,0.708155,0.217318,0.031048,0.025220,2.940000,1.000000,19.980000,10.000000
17:32:55,0.804784,0.209014,0.154884,0.029050,0.710256,0.217318,0.032325,0.025220,2.940000,1.000000,19.980000,10.000000
17:32:55,1.014847,0.250535,0.027218,0.029050,0.708155,0.217734,0.032325,0.025220,2.940000,1.000000,19.980000,10.000000
17:32:55,1.014847,0.250535,0.027218,0.029050,0.712357,0.217734,0.032325,0.025220,2.940000,1.000000,19.980000,10.000000
17:32:55,0.804784,0.292055,0.027218,0.029050,0.712357,0.218149,0.032325,0.025220,2.940000,1.000000,19.980000,10.000000
17:32:55,0.594722,0.209014,0.027218,0.029050,0.708155,0.217734,0.032325,0.025220,2.940000,1.000000,19.980000,10.000000
17:32:55,0.594722,0.167494,0.027218,0.029050,0.706055,0.217318,0.032325,0.025220,2.940000,1.000000,19.980000,10.000000
17:32:55,1.014847,0.209014,0.027218,0.029050,0.708155,0.216903,0.032325,0.025220,2.940000,1.000000,19.980000,10.000000
17:32:55,0.804784,0.209014,0.027218,0.156723,0.710256,0.217318,0.032325,0.026496,2.940000,1.000000,19.980000,10.000000
17:32:56,0.594722,0.209014,0.027218,0.029050,0.710256,0.217734,0.032325,0.026496,2.940000,0.000000,19.959999,10.000000
17:32:56,1.224909,0.250535,0.027218,0.029050,0.718659,0.218149,0.032325,0.023943,2.940000,0.000000,19.959999,10.000000
17:32:56,1.014847,0.250535,0.027218,0.029050,0.722860,0.218564,0.032325,0.023943,2.940000,0.000000,19.959999,10.000000
17:32:56,0.804784,0.250535,0.027218,0.029050,0.722860,0.218564,0.032325,0.023943,2.940000,0.000000,19.959999,10.000000
17:32:56,0.804784,0.333575,0.027218,0.029050,0.720759,0.219394,0.032325,0.023943,2.940000,0.000000,19.959999,10.000000
17:32:56,0.594722,0.209014,0.027218,0.029050,0.716558,0.218979,0.032325,0.023943,2.940000,0.000000,19.959999,10.000000
17:32:56,0.384659,0.209014,0.027218,0.029050,0.710256,0.218979,0.032325,0.023943,2.940000,0.000000,19.959999,10.000000
17:32:56,0.384659,0.250535,0.027218,0.029050,0.703954,0.219394,0.032325,0.023943,2.940000,0.000000,19.959999,10.000000
17:32:56,0.384659,0.209014,0.027218,0.029050,0.699753,0.219810,0.032325,0.023943,2.940000,0.000000,19.959999,10.000000
17:32:56,0.594722,0.209014,0.027218,0.029050,0.697652,0.219810,0.031048,0.023943,2.940000,0.000000,19.959999,10.000000
17:32:57,1.014847,0.250535,0.027218,0.029050,0.701854,0.219810,0.031048,0.020113,2.940000,1.000000,19.980000,10.000000
17:32:57,1.014847,0.250535,0.154884,0.029050,0.703954,0.220225,0.032325,0.020113,2.940000,1.000000,19.980000,10.000000
17:32:57,0.804784,0.250535,0.027218,0.029050,0.703954,0.220640,0.032325,0.020113,2.940000,1.000000,19.980000,10.000000
17:32:57,0.804784,0.209014,0.027218,0.029050,0.701854,0.220225,0.032325,0.020113,2.940000,1.000000,19.980000,10.000000
17:32:57,0.594722,0.209014,0.027218,0.029050,0.699753,0.219810,0.032325,0.020113,2.940000,1.000000,19.980000,10.000000
17:32:57,0.384659,0.167494,0.027218,0.029050,0.695552,0.219394,0.032325,0.020113,2.940000,1.000000,19.980000,10.000000
17:32:57,0.384659,0.209014,0.027218,0.029050,0.691351,0.219394,0.032325,0.020113,2.940000,1.000000,19.980000,10.000000
17:32:57,0.384659,0.209014,0.027218,0.156723,0.689250,0.219394,0.032325,0.021389,2.940000,1.000000,19.980000,10.000000
17:32:57,0.594722,0.209014,0.027218,0.029050,0.687149,0.219394,0.032325,0.021389,2.940000,1.000000,19.980000,10.000000
17:32:57,0.804784,0.250535,0.154884,0.029050,0.687149,0.219810,0.033602,0.025220,2.940000,1.000000,19.980000,10.000000
17:32:58,0.804784,0.250535,0.027218,0.029050,0.689250,0.220225,0.032325,0.025220,2.930000,1.000000,19.969999,10.000000
17:32:58,0.804784,0.250535,0.027218,0.029050,0.687149,0.220640,0.033602,0.025220,2.930000,1.000000,19.969999,10.000000
17:32:58,0.804784,0.209014,0.027218,0.029050,0.685049,0.220225,0.033602,0.025220,2.930000,1.000000,19.969999,10.000000
17:32:58,0.594722,0.167494,0.027218,0.029050,0.682948,0.219394,0.033602,0.025220,2.930000,1.000000,19.969999,10.000000
17:32:58,-0.035465,0.209014,-0.100448,0.029050,0.674546,0.219394,0.032325,0.025220,2.930000,1.000000,19.969999,10.000000
17:32:58,0.384659,0.209014,0.027218,0.029050,0.672445,0.219394,0.032325,0.025220,2.930000,1.000000,19.969999,10.000000
17:32:58,0.384659,0.209014,0.027218,-0.353970,0.670344,0.219810,0.032325,0.021389,2.930000,1.000000,19.969999,10.000000
17:32:58,0.594722,0.250535,0.027218,0.029050,0.670344,0.220225,0.032325,0.021389,2.930000,1.000000,19.969999,10.000000
17:32:58,0.804784,0.250535,0.154884,0.029050,0.672445,0.220640,0.033602,0.023943,2.930000,1.000000,19.969999,10.000000
17:32:58,0.804784,0.292055,0.027218,0.029050,0.672445,0.221055,0.033602,0.023943,2.930000,1.000000,19.969999,10.000000
17:32:59,1.014847,0.209014,0.027218,0.029050,0.674546,0.220640,0.033602,0.023943,2.940000,1.000000,19.969999,10.000000
17:32:59,0.804784,0.250535,0.027218,0.029050,0.674546,0.220640,0.033602,0.023943,2.940000,1.000000,19.969999,10.000000
17:32:59,0.804784,0.167494,0.027218,0.029050,0.674546,0.220225,0.033602,0.023943,2.940000,1.000000,19.969999,10.000000
17:32:59,0.594722,0.167494,0.027218,0.029050,0.672445,0.219394,0.033602,0.023943,2.940000,1.000000,19.969999,10.000000
17:32:59,0.384659,0.209014,0.027218,0.029050,0.668244,0.219394,0.033602,0.023943,2.940000,1.000000,19.969999,10.000000
17:32:59,0.594722,0.250535,0.154884,0.412069,0.666143,0.220225,0.034878,0.027773,2.940000,1.000000,19.969999,10.000000
17:32:59,0.594722,0.250535,0.027218,0.029050,0.664042,0.220640,0.034878,0.027773,2.940000,1.000000,19.969999,10.000000
17:32:59,0.804784,0.250535,0.027218,0.029050,0.666143,0.221055,0.034878,0.029050,2.940000,1.000000,19.969999,10.000000
17:32:59,0.804784,0.250535,0.027218,0.029050,0.668244,0.221470,0.033602,0.029050,2.940000,1.000000,19.969999,10.000000
17:32:59,0.804784,0.209014,0.027218,0.029050,0.670344,0.221055,0.034878,0.029050,2.940000,1.000000,19.969999,10.000000
17:33:00,0.804784,0.209014,0.027218,0.029050,0.670344,0.220640,0.034878,0.029050,2.940000,1.000000,19.990000,10.000000
17:33:00,0.804784,0.167494,0.027218,0.029050,0.666143,0.220225,0.034878,0.029050,2.940000,1.000000,19.990000,10.000000
17:33:00,1.224909,0.167494,0.027218,0.029050,0.668244,0.219810,0.034878,0.029050,2.940000,1.000000,19.990000,10.000000
17:33:00,0.384659,0.209014,0.027218,0.029050,0.664042,0.219810,0.034878,0.029050,2.940000,1.000000,19.990000,15.000000
17:33:00,0.594722,0.250535,0.027218,-0.098623,0.661942,0.220225,0.034878,0.027773,2.940000,1.000000,19.990000,15.000000
17:33:00,0.594722,0.250535,0.027218,0.029050,0.655640,0.220640,0.034878,0.029050,2.940000,1.000000,19.990000,15.000000
17:33:00,0.594722,0.250535,0.027218,0.029050,0.653539,0.221055,0.034878,0.030327,2.940000,1.000000,19.990000,15.000000
17:33:00,0.804784,0.250535,0.027218,-0.098623,0.655640,0.221470,0.034878,0.029050,2.940000,1.000000,19.990000,15.000000
17:33:00,0.804784,0.250535,0.027218,0.029050,0.657741,0.221470,0.038708,0.029050,2.940000,1.000000,19.990000,15.000000
17:33:00,0.804784,0.250535,0.027218,0.029050,0.657741,0.221470,0.038708,0.029050,2.940000,1.000000,19.990000,15.000000
17:33:01,0.804784,0.250535,0.027218,0.029050,0.657741,0.221470,0.038708,0.029050,2.960000,1.000000,20.000000,15.000000
17:33:01,0.804784,0.250535,0.027218,0.029050,0.657741,0.221886,0.038708,0.029050,2.960000,1.000000,20.000000,15.000000
17:33:01,1.014847,0.292055,0.027218,0.029050,0.659841,0.223131,0.038708,0.029050,2.960000,1.000000,20.000000,15.000000
17:33:01,1.434971,0.250535,0.027218,0.029050,0.666143,0.223547,0.038708,0.030327,2.960000,1.000000,20.000000,15.000000
17:33:01,1.434971,0.333575,0.027218,0.029050,0.676646,0.224792,0.038708,0.030327,2.960000,1.000000,20.000000,15.000000
17:33:01,1.645034,0.416616,0.027218,0.029050,0.687149,0.226453,0.038708,0.030327,2.960000,1.000000,20.000000,15.000000
17:33:01,1.645034,0.333575,0.027218,0.029050,0.697652,0.227699,0.038708,0.030327,2.960000,1.000000,20.000000,15.000000
17:33:01,1.645034,0.292055,0.027218,0.029050,0.706055,0.228114,0.038708,0.030327,2.960000,1.000000,20.000000,15.000000
17:33:01,1.645034,0.292055,0.027218,0.029050,0.714457,0.228529,0.038708,0.030327,2.960000,1.000000,20.000000,15.000000
17:33:01,1.645034,0.333575,0.027218,-0.098623,0.724960,0.229775,0.038708,0.029050,2.960000,1.000000,20.000000,15.000000
17:33:02,1.855096,0.375095,0.027218,0.029050,0.737564,0.231435,0.037432,0.029050,3.250000,1.000000,20.030001,15.000000
17:33:02,2.065158,0.416616,0.282550,-0.353970,0.754369,0.233511,0.039985,0.025220,3.250000,1.000000,20.030001,15.000000
17:33:02,2.275221,0.416616,0.027218,0.029050,0.773275,0.235587,0.039985,0.025220,3.250000,1.000000,20.030001,15.000000
17:33:02,2.065158,0.416616,0.027218,0.029050,0.790080,0.238079,0.039985,0.025220,3.250000,1.000000,20.030001,15.000000
17:33:02,1.645034,0.375095,0.027218,0.029050,0.800583,0.239739,0.039985,0.025220,3.250000,1.000000,20.030001,15.000000
17:33:02,1.855096,0.416616,0.027218,0.029050,0.813187,0.241815,0.039985,0.025220,3.250000,1.000000,20.030001,15.000000
17:33:02,1.645034,0.416616,0.027218,0.029050,0.821589,0.243891,0.038708,0.025220,3.250000,1.000000,20.030001,15.000000
17:33:02,2.065158,0.458136,0.027218,0.029050,0.834193,0.245967,0.037432,0.025220,3.250000,1.000000,20.030001,15.000000
17:33:02,2.275221,0.499656,0.027218,0.029050,0.848897,0.248874,0.037432,0.025220,3.250000,1.000000,20.030001,15.000000
17:33:02,2.065158,0.499656,0.027218,0.029050,0.863602,0.251780,0.037432,0.025220,3.250000,1.000000,20.030001,15.000000
17:33:03,2.065158,0.416616,0.027218,0.029050,0.878306,0.254271,0.037432,0.025220,3.800000,1.000000,20.020000,15.000000
17:33:03,2.065158,0.416616,0.027218,0.029050,0.895111,0.256763,0.037432,0.025220,3.800000,1.000000,20.020000,15.000000
17:33:03,2.065158,0.416616,0.027218,0.029050,0.911916,0.258839,0.037432,0.025220,3.800000,1.000000,20.020000,15.000000
17:33:03,2.065158,0.458136,0.027218,0.029050,0.926620,0.261330,0.037432,0.025220,3.800000,1.000000,20.020000,15.000000
17:33:03,2.275221,0.499656,0.027218,0.029050,0.943425,0.264236,0.037432,0.025220,3.800000,1.000000,20.020000,15.000000
17:33:03,2.275221,0.458136,0.027218,-0.098623,0.958130,0.266312,0.037432,0.023943,3.800000,1.000000,20.020000,15.000000
17:33:03,2.065158,0.416616,0.027218,0.029050,0.972834,0.267973,0.037432,0.023943,3.800000,1.000000,20.020000,15.000000
17:33:03,1.855096,0.416616,0.027218,0.029050,0.985438,0.270464,0.037432,0.023943,3.800000,1.000000,20.020000,15.000000
17:33:03,2.065158,0.416616,0.027218,0.029050,1.000142,0.271710,0.037432,0.023943,3.800000,1.000000,20.020000,15.000000
17:33:03,2.275221,0.458136,0.027218,0.029050,1.019048,0.274616,0.037432,0.023943,3.800000,1.000000,20.020000,15.000000
17:33:04,2.065158,0.499656,0.027218,0.029050,1.037953,0.277523,0.037432,0.023943,4.280000,1.000000,20.010000,15.000000
17:33:04,2.275221,0.416616,0.027218,0.029050,1.056859,0.279599,0.037432,0.022666,4.280000,1.000000,20.010000,15.000000
17:33:04,2.275221,0.416616,0.027218,0.029050,1.075765,0.281260,0.037432,0.022666,4.280000,1.000000,20.010000,15.000000
17:33:04,1.855096,0.375095,0.027218,0.029050,1.088368,0.282505,0.037432,0.022666,4.280000,1.000000,20.010000,15.000000
17:33:04,1.855096,0.416616,0.027218,-0.098623,1.098871,0.284166,0.037432,0.021389,4.280000,1.000000,20.010000,15.000000
17:33:04,2.275221,0.416616,0.027218,0.029050,1.113576,0.285827,0.036155,0.021389,4.280000,1.000000,20.010000,15.000000
17:33:04,2.065158,0.499656,0.154884,0.029050,1.126180,0.288733,0.037432,0.021389,4.280000,1.000000,20.010000,15.000000
17:33:04,2.065158,0.458136,0.027218,0.029050,1.140884,0.291640,0.037432,0.021389,4.280000,1.000000,20.010000,15.000000
17:33:04,2.065158,0.375095,-0.100448,0.029050,1.157689,0.293716,0.034878,0.021389,4.280000,1.000000,20.010000,15.000000
17:33:04,1.855096,0.416616,0.027218,0.029050,1.172393,0.295792,0.034878,0.021389,4.280000,1.000000,20.010000,15.000000
17:33:05,1.855096,0.416616,0.027218,-0.481643,1.184997,0.297868,0.034878,0.016283,4.410000,1.000000,20.010000,15.000000
17:33:05,2.065158,0.458136,0.154884,0.029050,1.199701,0.300359,0.036155,0.016283,4.410000,1.000000,20.010000,15.000000
17:33:05,2.065158,0.499656,0.027218,0.029050,1.212305,0.303265,0.034878,0.016283,4.410000,1.000000,20.010000,15.000000
17:33:05,2.275221,0.458136,0.027218,0.029050,1.224909,0.305341,0.034878,0.016283,4.410000,1.000000,20.010000,15.000000
17:33:05,2.065158,0.375095,0.027218,0.029050,1.235412,0.306587,0.034878,0.016283,4.410000,1.000000,20.010000,15.000000
17:33:05,1.855096,0.375095,0.027218,0.029050,1.245915,0.307417,0.034878,0.016283,4.410000,1.000000,20.010000,15.000000
17:33:05,1.855096,0.416616,0.027218,0.156723,1.258519,0.309493,0.034878,0.017559,4.410000,1.000000,20.010000,15.000000
17:33:05,2.065158,0.499656,0.027218,0.029050,1.273223,0.312815,0.034878,0.017559,4.410000,1.000000,20.010000,15.000000
17:33:05,2.485283,0.458136,0.027218,0.029050,1.287928,0.315306,0.034878,0.017559,4.410000,1.000000,20.010000,15.000000
17:33:05,2.275221,0.416616,0.027218,0.029050,1.302632,0.317382,0.034878,0.016283,4.410000,1.000000,20.010000,15.000000
17:33:06,2.695345,0.375095,0.027218,0.029050,1.323638,0.319043,0.034878,0.016283,4.420000,1.000000,20.010000,15.000000
17:33:06,2.275221,0.375095,0.027218,0.029050,1.334141,0.320289,0.034878,0.016283,4.420000,1.000000,20.010000,15.000000
17:33:06,2.065158,0.458136,0.027218,0.029050,1.344644,0.322365,0.034878,0.016283,4.420000,1.000000,20.010000,15.000000
17:33:06,2.065158,0.499656,0.282550,0.667416,1.357248,0.324856,0.037432,0.022666,4.420000,1.000000,20.010000,15.000000
17:33:06,2.485283,0.458136,0.027218,0.029050,1.374053,0.326102,0.037432,0.022666,4.420000,1.000000,20.010000,15.000000
17:33:06,2.275221,0.416616,0.154884,0.029050,1.390858,0.328178,0.038708,0.022666,4.420000,1.000000,20.010000,15.000000
17:33:06,2.275221,0.375095,0.027218,0.029050,1.409764,0.329838,0.038708,0.022666,4.420000,1.000000,20.010000,15.000000
17:33:06,1.855096,0.416616,0.027218,0.029050,1.424468,0.331499,0.038708,0.022666,4.420000,1.000000,20.010000,15.000000
17:33:06,2.065158,0.416616,0.027218,0.029050,1.441273,0.333575,0.038708,0.022666,4.420000,1.000000,20.010000,15.000000
17:33:06,2.275221,0.458136,0.027218,0.029050,1.458078,0.336066,0.038708,0.022666,4.420000,1.000000,20.010000,15.000000
17:33:07,2.275221,0.458136,0.027218,0.029050,1.470682,0.338142,0.038708,0.022666,4.420000,1.000000,0.000000,15.000000
17:33:07,2.065158,0.375095,0.154884,0.029050,1.481185,0.339388,0.038708,0.022666,4.420000,1.000000,0.000000,15.000000
17:33:07,1.855096,0.375095,0.027218,0.029050,1.491688,0.340634,0.038708,0.022666,4.420000,1.000000,0.000000,15.000000
17:33:07,2.485283,0.416616,0.027218,0.029050,1.508493,0.342710,0.038708,0.022666,4.420000,1.000000,0.000000,15.000000
17:33:07,1.855096,0.458136,0.027218,0.029050,1.521097,0.345201,0.038708,0.022666,4.420000,1.000000,0.000000,15.000000
17:33:07,2.065158,0.499656,-0.100448,0.156723,1.537902,0.348522,0.037432,0.023943,4.420000,1.000000,0.000000,15.000000
17:33:07,2.065158,0.458136,0.410216,0.029050,1.554707,0.351014,0.041262,0.023943,4.420000,1.000000,0.000000,15.000000
17:33:07,2.065158,0.416616,0.027218,0.029050,1.571512,0.353090,0.041262,0.022666,4.420000,1.000000,0.000000,15.000000
17:33:07,1.855096,0.416616,0.027218,0.029050,1.584115,0.355166,0.041262,0.022666,4.420000,1.000000,0.000000,15.000000
17:33:07,1.855096,0.416616,0.027218,-0.098623,1.594619,0.356827,0.039985,0.021389,4.420000,1.000000,0.000000,15.000000
17:33:08,1.855096,0.416616,0.027218,0.029050,1.605122,0.358487,0.039985,0.021389,4.420000,1.000000,0.000000,15.000000
17:33:08,2.065158,0.458136,0.027218,0.029050,1.617725,0.360563,0.039985,0.021389,4.420000,1.000000,0.000000,15.000000
17:33:08,2.065158,0.458136,0.027218,0.029050,1.630329,0.363055,0.039985,0.021389,4.420000,1.000000,0.000000,15.000000
17:33:08,1.855096,0.416616,0.027218,0.029050,1.642933,0.365546,0.039985,0.021389,4.420000,1.000000,0.000000,15.000000
17:33:08,1.855096,0.416616,0.027218,0.029050,1.661838,0.367622,0.041262,0.021389,4.420000,1.000000,0.000000,15.000000
17:33:08,1.645034,0.416616,0.027218,0.029050,1.674442,0.369698,0.041262,0.021389,4.420000,1.000000,0.000000,15.000000
17:33:08,1.855096,0.416616,0.027218,0.029050,1.689147,0.371774,0.041262,0.025220,4.420000,1.000000,0.000000,15.000000
17:33:08,2.065158,0.458136,0.027218,0.029050,1.703851,0.373850,0.041262,0.025220,4.420000,1.000000,0.000000,15.000000
17:33:08,2.065158,0.458136,0.027218,0.029050,1.716455,0.375926,0.039985,0.025220,4.420000,1.000000,0.000000,15.000000
17:33:08,1.855096,0.292055,0.027218,0.029050,1.726958,0.375926,0.039985,0.025220,4.420000,1.000000,0.000000,15.000000
17:33:09,1.855096,0.375095,0.027218,0.029050,1.735360,0.377587,0.039985,0.025220,4.420000,1.000000,20.000000,15.000000
17:33:09,1.855096,0.416616,0.027218,0.029050,1.745863,0.379247,0.039985,0.025220,4.420000,1.000000,20.000000,15.000000
17:33:09,2.065158,0.416616,0.154884,-0.353970,1.758467,0.381739,0.041262,0.021389,4.420000,1.000000,20.000000,15.000000
17:33:09,2.065158,0.458136,0.027218,0.029050,1.773172,0.384645,0.041262,0.021389,4.420000,1.000000,20.000000,15.000000
17:33:09,2.065158,0.458136,0.027218,0.029050,1.789977,0.387136,0.041262,0.021389,4.420000,1.000000,20.000000,15.000000
17:33:09,1.855096,0.375095,0.027218,0.029050,1.802580,0.388382,0.039985,0.017559,4.420000,1.000000,20.000000,15.000000
17:33:09,1.645034,0.416616,0.027218,0.029050,1.813083,0.390043,0.039985,0.017559,4.420000,1.000000,20.000000,15.000000
17:33:09,1.855096,0.458136,0.027218,0.029050,1.823586,0.392119,0.039985,0.017559,4.420000,1.000000,20.000000,15.000000
17:33:09,1.855096,0.458136,0.027218,0.029050,1.834090,0.394195,0.039985,0.017559,4.420000,1.000000,20.000000,15.000000
17:33:09,2.065158,0.458136,0.027218,-0.098623,1.846693,0.396686,0.039985,0.016283,4.420000,1.000000,20.000000,15.000000
17:33:10,2.275221,0.458136,0.027218,0.029050,1.861398,0.399177,0.039985,0.016283,4.420000,1.000000,20.010000,15.000000
17:33:10,2.065158,0.416616,0.027218,0.029050,1.874001,0.401668,0.039985,0.016283,4.420000,1.000000,20.010000,15.000000
17:33:10,2.065158,0.375095,0.027218,0.029050,1.882404,0.403744,0.039985,0.016283,4.420000,1.000000,20.010000,15.000000
17:33:10,2.065158,0.458136,0.027218,0.029050,1.899209,0.406236,0.039985,0.016283,4.420000,1.000000,20.010000,15.000000
17:33:10,2.065158,0.458136,0.027218,0.029050,1.913913,0.408312,0.039985,0.017559,4.420000,1.000000,20.010000,15.000000
17:33:10,2.065158,0.458136,0.154884,0.029050,1.928618,0.410388,0.041262,0.017559,4.420000,1.000000,20.010000,15.000000
17:33:10,2.065158,0.416616,0.027218,0.029050,1.943322,0.412048,0.041262,0.017559,4.420000,1.000000,20.010000,15.000000
17:33:10,1.855096,0.375095,0.154884,0.029050,1.953825,0.413294,0.042538,0.018836,4.420000,1.000000,20.010000,15.000000
17:33:10,1.855096,0.416616,0.154884,0.029050,1.964328,0.414955,0.043815,0.018836,4.420000,1.000000,20.010000,15.000000
17:33:10,1.855096,0.416616,0.027218,0.029050,1.974831,0.416616,0.043815,0.018836,4.420000,1.000000,20.010000,15.000000
17:33:11,2.905408,0.458136,0.027218,0.029050,1.995838,0.418692,0.043815,0.018836,4.420000,1.000000,20.030001,15.000000
17:33:11,2.485283,0.499656,0.027218,0.029050,2.012643,0.421183,0.043815,0.018836,4.420000,1.000000,20.030001,15.000000
17:33:11,2.065158,0.416616,0.027218,0.029050,2.023146,0.422429,0.043815,0.018836,4.420000,1.000000,20.030001,15.000000
17:33:11,1.855096,0.375095,0.027218,0.029050,2.027347,0.423674,0.043815,0.018836,4.420000,1.000000,20.030001,15.000000
17:33:11,1.855096,0.416616,0.027218,0.029050,2.031548,0.424505,0.043815,0.018836,4.420000,1.000000,20.030001,15.000000
17:33:11,1.855096,0.416616,0.027218,0.029050,2.033649,0.424505,0.043815,0.018836,4.420000,1.000000,20.030001,15.000000
17:33:11,2.065158,0.458136,0.027218,0.029050,2.037850,0.425750,0.043815,0.018836,4.420000,1.000000,20.030001,15.000000
17:33:11,2.275221,0.499656,0.027218,0.029050,2.044152,0.427826,0.043815,0.018836,4.420000,1.000000,20.030001,15.000000
17:33:11,1.855096,0.416616,0.027218,0.029050,2.046253,0.429072,0.043815,0.018836,4.420000,1.000000,20.030001,15.000000
17:33:11,1.645034,0.416616,0.027218,0.029050,2.046253,0.429902,0.043815,0.020113,4.420000,1.000000,20.030001,15.000000
17:33:12,2.065158,0.416616,0.154884,0.029050,2.048353,0.430317,0.045092,0.020113,4.430000,1.000000,20.030001,15.000000
17:33:12,2.065158,0.416616,0.027218,0.029050,2.048353,0.430317,0.042538,0.023943,4.430000,1.000000,20.030001,15.000000
17:33:12,2.065158,0.499656,0.027218,0.029050,2.046253,0.431148,0.042538,0.023943,4.430000,1.000000,20.030001,15.000000
17:33:12,2.275221,0.458136,0.027218,-0.098623,2.048353,0.431563,0.042538,0.022666,4.430000,1.000000,20.030001,15.000000
17:33:12,2.065158,0.416616,0.027218,0.029050,2.052554,0.431978,0.042538,0.022666,4.430000,1.000000,20.030001,15.000000
17:33:12,1.855096,0.375095,0.027218,0.029050,2.052554,0.431563,0.042538,0.022666,4.430000,1.000000,20.030001,15.000000
17:33:12,2.275221,0.416616,0.027218,0.029050,2.058856,0.431563,0.042538,0.022666,4.430000,1.000000,20.030001,15.000000
17:33:12,2.065158,0.458136,0.027218,0.029050,2.058856,0.431563,0.042538,0.022666,4.430000,1.000000,20.030001,15.000000
17:33:12,2.065158,0.499656,0.027218,0.029050,2.056756,0.431563,0.042538,0.022666,4.430000,1.000000,20.030001,15.000000
17:33:12,2.065158,0.458136,0.027218,-0.098623,2.056756,0.431148,0.042538,0.021389,4.430000,1.000000,20.030001,15.000000
17:33:13,2.065158,0.375095,0.027218,0.029050,2.056756,0.430733,0.042538,0.021389,4.420000,1.000000,20.040001,15.000000
17:33:13,2.275221,0.375095,0.027218,0.029050,2.058856,0.430317,0.042538,0.021389,4.420000,1.000000,20.040001,15.000000
17:33:13,1.855096,0.416616,0.027218,0.029050,2.056756,0.430317,0.042538,0.021389,4.420000,1.000000,20.040001,15.000000
17:33:13,2.065158,0.416616,0.027218,0.029050,2.056756,0.429902,0.042538,0.021389,4.420000,1.000000,20.040001,15.000000
17:33:13,2.065158,0.458136,0.027218,0.029050,2.054655,0.429487,0.042538,0.021389,4.420000,1.000000,20.040001,15.000000
17:33:13,2.065158,0.416616,0.027218,0.029050,2.052554,0.429072,0.042538,0.022666,4.420000,1.000000,20.040001,15.000000
17:33:13,2.065158,0.416616,0.027218,0.029050,2.052554,0.429072,0.042538,0.022666,4.420000,1.000000,20.040001,15.000000
17:33:13,1.855096,0.416616,0.027218,0.029050,2.052554,0.429072,0.042538,0.022666,4.420000,1.000000,20.040001,15.000000
17:33:13,1.855096,0.416616,0.027218,0.029050,2.050454,0.429072,0.042538,0.022666,4.420000,1.000000,20.040001,15.000000
17:33:13,1.855096,0.458136,0.027218,0.029050,2.046253,0.429072,0.042538,0.022666,4.420000,1.000000,20.040001,15.000000
17:33:14,2.065158,0.499656,0.027218,0.029050,2.046253,0.429072,0.042538,0.022666,4.420000,1.000000,20.020000,15.000000
17:33:14,2.065158,0.458136,0.027218,0.029050,2.044152,0.429487,0.042538,0.022666,4.420000,1.000000,20.020000,15.000000
17:33:14,1.855096,0.416616,0.027218,0.029050,2.039951,0.429487,0.042538,0.022666,4.420000,1.000000,20.020000,15.000000
17:33:14,2.065158,0.416616,0.027218,0.029050,2.042051,0.429902,0.042538,0.022666,4.420000,1.000000,20.020000,15.000000
17:33:14,1.855096,0.416616,0.154884,0.029050,2.042051,0.429902,0.043815,0.023943,4.420000,1.000000,20.020000,15.000000
17:33:14,2.065158,0.458136,0.027218,0.029050,2.039951,0.430317,0.043815,0.023943,4.420000,1.000000,20.020000,15.000000
17:33:14,2.275221,0.458136,0.027218,0.029050,2.042051,0.429902,0.042538,0.023943,4.420000,1.000000,20.020000,15.000000
17:33:14,2.275221,0.416616,0.027218,0.029050,2.044152,0.429487,0.042538,0.023943,4.420000,1.000000,20.020000,15.000000
17:33:14,2.065158,0.416616,0.027218,0.029050,2.044152,0.429902,0.043815,0.023943,4.420000,1.000000,20.020000,15.000000
17:33:14,2.065158,0.416616,0.027218,0.029050,2.046253,0.429902,0.043815,0.023943,4.420000,1.000000,20.020000,15.000000
17:33:15,2.065158,0.416616,0.027218,0.029050,2.048353,0.429902,0.043815,0.029050,4.430000,1.000000,20.010000,15.000000
17:33:15,2.065158,0.499656,0.027218,0.029050,2.048353,0.430317,0.042538,0.029050,4.430000,1.000000,20.010000,15.000000
17:33:15,2.065158,0.499656,0.154884,0.029050,2.048353,0.430317,0.043815,0.029050,4.430000,1.000000,20.010000,15.000000
17:33:15,2.065158,0.458136,0.027218,0.029050,2.046253,0.430317,0.043815,0.029050,4.430000,1.000000,20.010000,15.000000
17:33:15,1.855096,0.416616,0.027218,0.029050,2.044152,0.430733,0.043815,0.029050,4.430000,1.000000,20.010000,15.000000
17:33:15,1.855096,0.416616,0.027218,0.029050,2.044152,0.431148,0.043815,0.029050,4.430000,1.000000,20.010000,15.000000
17:33:15,1.855096,0.416616,0.027218,0.029050,2.044152,0.431148,0.043815,0.027773,4.430000,1.000000,20.010000,15.000000
17:33:15,2.485283,0.458136,0.027218,-0.098623,2.048353,0.430733,0.043815,0.026496,4.430000,1.000000,20.010000,15.000000
17:33:15,2.485283,0.458136,0.027218,0.029050,2.048353,0.430733,0.043815,0.026496,4.430000,1.000000,20.010000,15.000000
17:33:15,1.855096,0.416616,0.154884,0.029050,2.044152,0.430733,0.045092,0.026496,4.430000,1.000000,20.010000,15.000000
17:33:16,1.855096,0.416616,0.027218,0.029050,2.035749,0.431148,0.045092,0.026496,4.430000,1.000000,19.990000,15.000000
17:33:16,2.065158,0.416616,0.027218,0.029050,2.033649,0.431563,0.045092,0.026496,4.430000,1.000000,19.990000,15.000000
17:33:16,2.065158,0.416616,0.027218,0.029050,2.033649,0.431148,0.045092,0.026496,4.430000,1.000000,19.990000,15.000000
17:33:16,2.275221,0.499656,0.027218,0.029050,2.035749,0.431148,0.042538,0.020113,4.430000,1.000000,19.990000,15.000000
17:33:16,2.275221,0.416616,0.027218,0.029050,2.033649,0.430733,0.042538,0.020113,4.430000,1.000000,19.990000,15.000000
17:33:16,2.065158,0.416616,0.027218,0.029050,2.031548,0.430733,0.041262,0.020113,4.430000,1.000000,19.990000,15.000000
17:33:16,2.065158,0.375095,0.027218,0.029050,2.029448,0.430733,0.041262,0.020113,4.430000,1.000000,19.990000,15.000000
17:33:16,1.855096,0.416616,0.027218,0.029050,2.029448,0.430733,0.041262,0.020113,4.430000,1.000000,19.990000,15.000000
17:33:16,2.065158,0.458136,0.027218,0.029050,2.029448,0.431148,0.041262,0.020113,4.430000,1.000000,19.990000,15.000000
17:33:16,2.065158,0.499656,0.027218,0.029050,2.027347,0.431563,0.041262,0.020113,4.430000,1.000000,19.990000,15.000000
17:33:17,2.065158,0.458136,0.027218,0.029050,2.025246,0.431563,0.041262,0.020113,4.420000,0.000000,19.969999,15.000000
17:33:17,2.065158,0.416616,0.027218,0.029050,2.025246,0.431978,0.039985,0.020113,4.420000,0.000000,19.969999,15.000000
17:33:17,1.855096,0.416616,0.027218,0.029050,2.025246,0.432393,0.039985,0.020113,4.420000,0.000000,19.969999,15.000000
17:33:17,2.065158,0.416616,0.027218,0.029050,2.021045,0.432393,0.039985,0.020113,4.420000,0.000000,19.969999,15.000000
17:33:17,2.065158,0.416616,0.027218,0.029050,2.023146,0.431978,0.039985,0.020113,4.420000,0.000000,19.969999,15.000000
17:33:17,2.275221,0.499656,0.027218,0.029050,2.025246,0.431978,0.041262,0.018836,4.420000,0.000000,19.969999,15.000000
17:33:17,2.275221,0.416616,0.027218,0.029050,2.027347,0.431563,0.037432,0.018836,4.420000,0.000000,19.969999,15.000000
17:33:17,2.065158,0.416616,0.027218,0.029050,2.027347,0.431563,0.037432,0.018836,4.420000,0.000000,19.969999,15.000000
17:33:17,2.065158,0.375095,0.027218,0.029050,2.029448,0.431148,0.037432,0.018836,4.420000,0.000000,19.969999,15.000000
17:33:17,1.855096,0.416616,0.027218,0.029050,2.029448,0.431148,0.037432,0.020113,4.420000,0.000000,19.969999,15.000000
17:33:18,2.065158,0.458136,0.027218,0.029050,2.031548,0.431563,0.037432,0.020113,4.430000,0.000000,19.969999,15.000000
17:33:18,2.275221,0.499656,0.027218,0.029050,2.033649,0.431978,0.037432,0.020113,4.430000,0.000000,19.969999,15.000000
17:33:18,2.485283,0.458136,0.027218,0.029050,2.037850,0.431978,0.037432,0.020113,4.430000,0.000000,19.969999,15.000000
17:33:18,2.275221,0.416616,0.027218,0.029050,2.042051,0.431978,0.037432,0.020113,4.430000,0.000000,19.969999,15.000000
17:33:18,2.065158,0.375095,0.027218,0.029050,2.044152,0.431563,0.037432,0.020113,4.430000,0.000000,19.969999,15.000000
17:33:18,2.065158,0.416616,0.410216,0.029050,2.048353,0.431563,0.041262,0.020113,4.430000,0.000000,19.969999,15.000000
17:33:18,2.065158,0.416616,0.027218,0.156723,2.050454,0.431563,0.041262,0.021389,4.430000,0.000000,19.969999,15.000000
17:33:18,2.065158,0.458136,0.027218,0.029050,2.050454,0.431563,0.041262,0.021389,4.430000,0.000000,19.969999,15.000000
17:33:18,2.065158,0.416616,0.027218,0.667416,2.050454,0.431148,0.041262,0.027773,4.430000,0.000000,19.969999,15.000000
17:33:18,2.065158,0.375095,0.027218,0.029050,2.052554,0.431978,0.041262,0.027773,4.430000,0.000000,19.969999,15.000000
17:33:19,2.275221,0.416616,0.027218,0.029050,2.056756,0.432393,0.041262,0.027773,4.430000,1.000000,19.969999,15.000000
17:33:19,2.275221,0.416616,0.027218,0.029050,2.060957,0.432393,0.041262,0.027773,4.430000,1.000000,19.969999,15.000000
17:33:19,2.275221,0.458136,0.027218,0.029050,2.063058,0.432809,0.039985,0.031603,4.430000,1.000000,19.969999,15.000000
17:33:19,2.065158,0.458136,0.154884,0.029050,2.063058,0.432809,0.041262,0.031603,4.430000,1.000000,19.969999,15.000000
17:33:19,2.065158,0.416616,0.027218,0.029050,2.063058,0.432393,0.041262,0.031603,4.430000,1.000000,19.969999,15.000000
17:33:19,2.275221,0.375095,0.027218,0.029050,2.067259,0.432393,0.041262,0.031603,4.430000,1.000000,19.969999,15.000000
17:33:19,2.065158,0.416616,0.027218,0.029050,2.071460,0.432393,0.041262,0.031603,4.430000,1.000000,19.969999,15.000000
17:33:19,2.065158,0.416616,0.027218,0.029050,2.073561,0.431978,0.041262,0.031603,4.430000,1.000000,19.969999,15.000000
17:33:19,2.065158,0.624217,0.027218,0.029050,2.075661,0.433639,0.041262,0.031603,4.430000,1.000000,19.969999,15.000000
17:33:19,2.065158,0.458136,0.027218,0.029050,2.075661,0.433639,0.041262,0.032880,4.430000,1.000000,19.969999,15.000000
17:33:20,2.065158,0.416616,0.027218,0.029050,2.073561,0.433224,0.041262,0.032880,4.420000,1.000000,19.950001,15.000000
17:33:20,1.855096,0.375095,0.793214,-0.226296,2.071460,0.432809,0.048922,0.030327,4.420000,1.000000,19.950001,15.000000
17:33:20,1.855096,0.416616,0.027218,0.029050,2.069359,0.433224,0.048922,0.030327,4.420000,1.000000,19.950001,15.000000
17:33:20,2.065158,0.458136,0.154884,0.029050,2.069359,0.433224,0.050198,0.030327,4.420000,1.000000,19.950001,15.000000
17:33:20,2.065158,0.458136,0.027218,0.029050,2.069359,0.433224,0.050198,0.030327,4.420000,1.000000,19.950001,15.000000
17:33:20,2.065158,0.458136,0.027218,0.029050,2.069359,0.433224,0.048922,0.030327,4.420000,1.000000,19.950001,15.000000
17:33:20,2.065158,0.416616,0.027218,0.029050,2.069359,0.433224,0.048922,0.030327,4.420000,1.000000,19.950001,15.000000
17:33:20,1.855096,0.416616,0.027218,0.029050,2.069359,0.433639,0.047645,0.030327,4.420000,1.000000,19.950001,15.000000
17:33:20,2.065158,0.375095,0.027218,0.029050,2.071460,0.433224,0.046368,0.030327,4.420000,1.000000,19.950001,15.000000
17:33:20,2.275221,0.458136,0.027218,0.029050,2.075661,0.433639,0.046368,0.030327,4.420000,1.000000,19.950001,15.000000
17:33:21,2.275221,0.499656,0.027218,0.029050,2.069359,0.434054,0.046368,0.030327,4.420000,10493298469859343800000000000000000.000000,19.940001,15.000000
17:33:21,2.065158,0.458136,0.154884,0.029050,2.065158,0.433639,0.047645,0.030327,4.420000,10493298469859343800000000000000000.000000,19.940001,15.000000
17:33:21,1.645034,0.375095,0.027218,0.029050,2.060957,0.433224,0.047645,0.030327,4.420000,10493298469859343800000000000000000.000000,19.940001,15.000000
17:33:21,1.855096,0.375095,0.027218,0.029050,2.060957,0.433224,0.047645,0.030327,4.420000,10493298469859343800000000000000000.000000,19.940001,15.000000
17:33:21,1.855096,0.416616,0.027218,0.029050,2.060957,0.433224,0.047645,0.030327,4.420000,10493298469859343800000000000000000.000000,19.940001,15.000000
17:33:21,1.855096,0.416616,0.027218,0.029050,2.060957,0.433224,0.047645,0.030327,4.420000,10493298469859343800000000000000000.000000,19.940001,15.000000
17:33:21,2.065158,0.458136,0.027218,0.029050,2.060957,0.433224,0.047645,0.030327,4.420000,10493298469859343800000000000000000.000000,19.940001,15.000000
17:33:21,2.065158,0.416616,0.027218,0.029050,2.058856,0.432393,0.047645,0.030327,4.420000,10493298469859343800000000000000000.000000,19.940001,15.000000
17:33:21,2.065158,0.416616,0.027218,0.029050,2.060957,0.432393,0.047645,0.030327,4.420000,10493298469859343800000000000000000.000000,19.940001,15.000000
17:33:21,2.065158,0.375095,0.027218,0.029050,2.065158,0.431978,0.047645,0.030327,4.420000,10493298469859343800000000000000000.000000,19.940001,15.000000
17:33:22,2.065158,0.416616,0.027218,0.029050,2.065158,0.431978,0.046368,0.030327,4.430000,10483791090357632100000000000000000.000000,19.959999,15.000000
17:33:22,2.065158,0.458136,0.027218,0.029050,2.065158,0.432393,0.046368,0.030327,4.430000,10483791090357632100000000000000000.000000,19.959999,15.000000
17:33:22,2.275221,0.499656,0.027218,0.029050,2.067259,0.432393,0.046368,0.030327,4.430000,10483791090357632100000000000000000.000000,19.959999,15.000000
17:33:22,2.065158,0.458136,0.027218,0.029050,2.065158,0.432393,0.046368,0.031603,4.430000,10483791090357632100000000000000000.000000,19.959999,15.000000
17:33:22,1.855096,0.375095,0.027218,0.029050,2.063058,0.431978,0.046368,0.031603,4.430000,10483791090357632100000000000000000.000000,19.959999,15.000000
17:33:22,1.855096,0.416616,0.027218,0.029050,2.063058,0.432393,0.046368,0.031603,4.430000,10483791090357632100000000000000000.000000,19.959999,15.000000
17:33:22,1.855096,0.416616,0.027218,0.029050,2.058856,0.432393,0.046368,0.031603,4.430000,10483791090357632100000000000000000.000000,19.959999,15.000000
17:33:22,1.434971,0.416616,0.027218,0.029050,2.052554,0.431978,0.046368,0.031603,4.430000,10483791090357632100000000000000000.000000,19.959999,15.000000
17:33:22,2.065158,0.499656,0.027218,0.029050,2.052554,0.431978,0.046368,0.031603,4.430000,10483791090357632100000000000000000.000000,19.959999,15.000000
17:33:22,2.065158,0.458136,-0.100448,0.029050,2.052554,0.431978,0.045092,0.032880,4.430000,10483791090357632100000000000000000.000000,19.959999,15.000000
17:33:23,2.065158,0.375095,-0.228114,0.156723,2.052554,0.431978,0.042538,0.034157,4.430000,1.000000,19.990000,15.000000
17:33:23,1.855096,0.375095,0.027218,0.029050,2.048353,0.431978,0.042538,0.034157,4.430000,1.000000,19.990000,15.000000
17:33:23,1.855096,0.458136,0.027218,0.029050,2.048353,0.432393,0.042538,0.034157,4.430000,1.000000,19.990000,15.000000
17:33:23,1.855096,0.458136,0.027218,-0.098623,2.046253,0.432809,0.042538,0.032880,4.430000,1.000000,19.990000,15.000000
17:33:23,2.275221,0.499656,0.027218,-0.098623,2.048353,0.433224,0.042538,0.031603,4.430000,1.000000,19.990000,15.000000
17:33:23,2.275221,0.458136,0.027218,0.029050,2.050454,0.433639,0.042538,0.031603,4.430000,1.000000,19.990000,15.000000
17:33:23,3.115470,0.375095,0.027218,0.029050,2.060957,0.433224,0.042538,0.031603,4.430000,1.000000,19.990000,15.000000
17:33:23,2.065158,0.375095,0.027218,0.029050,2.063058,0.432809,0.042538,0.031603,4.430000,1.000000,19.990000,15.000000
17:33:23,1.855096,0.416616,0.027218,0.029050,2.063058,0.432809,0.042538,0.031603,4.430000,1.000000,19.990000,15.000000
17:33:23,2.065158,0.458136,0.282550,0.029050,2.065158,0.432809,0.045092,0.031603,4.430000,1.000000,19.990000,15.000000
17:33:24,2.275221,0.499656,0.027218,0.029050,2.067259,0.432809,0.045092,0.031603,4.420000,1.000000,20.020000,15.000000
17:33:24,2.275221,0.416616,0.027218,0.029050,2.069359,0.432393,0.045092,0.031603,4.420000,1.000000,20.020000,15.000000
17:33:24,2.695345,0.416616,0.027218,0.156723,2.077762,0.432393,0.045092,0.032880,4.420000,1.000000,20.020000,15.000000
17:33:24,2.275221,0.375095,0.027218,0.029050,2.079863,0.431978,0.045092,0.032880,4.420000,1.000000,20.020000,15.000000
17:33:24,2.065158,0.416616,0.154884,0.029050,2.081963,0.431978,0.045092,0.032880,4.420000,1.000000,20.020000,15.000000
17:33:24,2.065158,0.499656,0.027218,0.029050,2.081963,0.432393,0.045092,0.032880,4.420000,1.000000,20.020000,15.000000
17:33:24,2.485283,0.458136,0.027218,0.029050,2.084064,0.432393,0.045092,0.032880,4.420000,1.000000,20.020000,15.000000
17:33:24,2.065158,0.416616,0.027218,0.029050,2.081963,0.432393,0.045092,0.032880,4.420000,1.000000,20.020000,15.000000
17:33:24,2.065158,0.375095,0.027218,0.029050,2.081963,0.431978,0.045092,0.032880,4.420000,1.000000,20.020000,15.000000
17:33:24,1.855096,0.416616,0.027218,0.029050,2.079863,0.431978,0.045092,0.032880,4.420000,1.000000,20.020000,15.000000
17:33:25,2.275221,0.416616,0.027218,0.029050,2.081963,0.431978,0.045092,0.032880,4.420000,1.000000,20.040001,15.000000
17:33:25,2.065158,0.458136,0.027218,0.029050,2.081963,0.431563,0.045092,0.032880,4.420000,1.000000,20.040001,15.000000
17:33:25,2.065158,0.499656,0.027218,0.029050,2.081963,0.431563,0.043815,0.032880,4.420000,1.000000,20.040001,15.000000
17:33:25,2.065158,0.375095,0.027218,-0.098623,2.081963,0.430733,0.043815,0.031603,4.420000,1.000000,20.040001,15.000000
17:33:25,1.855096,0.375095,0.027218,0.029050,2.081963,0.430317,0.043815,0.031603,4.420000,1.000000,20.040001,15.000000
17:33:25,1.855096,0.416616,0.410216,-0.098623,2.081963,0.430317,0.047645,0.030327,4.420000,1.000000,20.040001,15.000000
17:33:25,2.065158,0.416616,0.154884,-0.098623,2.084064,0.430317,0.048922,0.029050,4.420000,1.000000,20.040001,15.000000
17:33:25,2.065158,0.458136,0.027218,0.029050,2.079863,0.430317,0.048922,0.030327,4.420000,1.000000,20.040001,15.000000
17:33:25,2.065158,0.458136,0.027218,0.029050,2.075661,0.430317,0.048922,0.030327,4.420000,1.000000,20.040001,15.000000
17:33:25,2.065158,0.416616,0.027218,0.029050,2.077762,0.430317,0.047645,0.030327,4.420000,1.000000,20.040001,15.000000
17:33:26,2.065158,0.375095,0.027218,0.029050,2.079863,0.429902,0.047645,0.030327,4.430000,1.000000,20.040001,15.000000
17:33:26,2.275221,0.416616,0.027218,0.029050,2.081963,0.429902,0.047645,0.030327,4.430000,1.000000,20.040001,15.000000
17:33:26,2.485283,0.416616,0.027218,0.029050,2.086164,0.429902,0.047645,0.030327,4.430000,1.000000,20.040001,15.000000
17:33:26,2.695345,0.499656,0.027218,0.029050,2.090366,0.429902,0.047645,0.030327,4.430000,1.000000,20.040001,15.000000
17:33:26,2.275221,0.458136,0.027218,0.029050,2.090366,0.430317,0.047645,0.030327,4.430000,1.000000,20.040001,15.000000
17:33:26,2.905408,0.416616,0.027218,0.029050,2.098768,0.430317,0.047645,0.030327,4.430000,1.000000,20.040001,15.000000
17:33:26,2.065158,0.416616,0.027218,0.029050,2.098768,0.430733,0.047645,0.030327,4.430000,1.000000,20.040001,15.000000
17:33:26,2.065158,0.416616,0.027218,0.029050,2.100869,0.430733,0.047645,0.030327,4.430000,1.000000,20.040001,15.000000
17:33:26,2.065158,0.333575,0.282550,0.029050,2.100869,0.429487,0.050198,0.030327,4.430000,1.000000,20.040001,15.000000
17:33:26,2.275221,0.499656,0.027218,0.029050,2.102969,0.429487,0.050198,0.030327,4.430000,1.000000,20.040001,15.000000
17:33:27,2.275221,0.458136,0.027218,0.029050,2.105070,0.429487,0.050198,0.030327,4.430000,1.000000,20.020000,15.000000
17:33:27,2.065158,0.375095,0.027218,-0.481643,2.105070,0.429072,0.050198,0.025220,4.430000,1.000000,20.020000,15.000000
17:33:27,2.275221,0.416616,0.027218,0.029050,2.109271,0.429072,0.050198,0.025220,4.430000,1.000000,20.020000,15.000000
17:33:27,2.065158,0.416616,0.027218,0.029050,2.109271,0.429072,0.050198,0.025220,4.430000,1.000000,20.020000,15.000000
17:33:27,2.275221,0.458136,0.027218,0.029050,2.111372,0.429487,0.050198,0.025220,4.430000,1.000000,20.020000,15.000000
17:33:27,2.275221,0.499656,0.154884,0.029050,2.111372,0.429487,0.051475,0.025220,4.430000,1.000000,20.020000,15.000000
17:33:27,2.065158,0.416616,0.027218,0.029050,2.109271,0.429487,0.051475,0.025220,4.430000,1.000000,20.020000,15.000000
17:33:27,2.065158,0.375095,0.027218,0.029050,2.109271,0.429072,0.051475,0.025220,4.430000,1.000000,20.020000,15.000000
17:33:27,2.485283,0.375095,0.027218,0.029050,2.113473,0.429072,0.051475,0.025220,4.430000,1.000000,20.020000,15.000000
17:33:27,2.485283,0.416616,0.027218,0.029050,2.119774,0.429072,0.051475,0.025220,4.430000,1.000000,20.020000,15.000000
17:33:28,2.065158,0.458136,0.027218,0.029050,2.119774,0.429072,0.051475,0.025220,4.430000,1.000000,20.020000,15.000000
17:33:28,2.695345,0.499656,0.027218,0.029050,2.123976,0.429072,0.051475,0.025220,4.430000,1.000000,20.020000,15.000000
17:33:28,2.695345,0.458136,0.027218,0.029050,2.126076,0.429072,0.051475,0.025220,4.430000,1.000000,20.020000,15.000000
17:33:28,2.275221,0.375095,0.027218,0.029050,2.126076,0.428657,0.051475,0.025220,4.430000,1.000000,20.020000,15.000000
17:33:28,2.065158,0.416616,0.027218,0.156723,2.126076,0.429072,0.051475,0.026496,4.430000,1.000000,20.020000,15.000000
17:33:28,2.065158,0.416616,0.027218,0.029050,2.126076,0.429072,0.047645,0.026496,4.430000,1.000000,20.020000,15.000000
17:33:28,2.065158,0.458136,0.027218,0.029050,2.126076,0.429487,0.047645,0.025220,4.430000,1.000000,20.020000,15.000000
17:33:28,2.275221,0.458136,0.027218,0.029050,2.128177,0.429487,0.047645,0.025220,4.430000,1.000000,20.020000,15.000000
17:33:28,2.275221,0.416616,0.027218,0.029050,2.130278,0.429487,0.047645,0.018836,4.430000,1.000000,20.020000,15.000000
17:33:28,1.645034,0.416616,0.027218,0.029050,2.126076,0.429902,0.047645,0.018836,4.430000,1.000000,20.020000,15.000000
17:33:29,1.855096,0.416616,0.027218,0.029050,2.121875,0.429902,0.047645,0.018836,4.430000,1.000000,20.020000,15.000000
17:33:29,2.065158,0.458136,0.027218,0.029050,2.119774,0.430317,0.047645,0.018836,4.430000,1.000000,20.020000,15.000000
17:33:29,2.275221,0.499656,0.027218,0.029050,2.119774,0.430733,0.047645,0.018836,4.430000,1.000000,20.020000,15.000000
17:33:29,2.275221,0.499656,0.027218,0.029050,2.121875,0.431148,0.046368,0.018836,4.430000,1.000000,20.020000,15.000000
17:33:29,2.695345,0.416616,0.027218,0.029050,2.128177,0.431148,0.046368,0.018836,4.430000,1.000000,20.020000,15.000000
17:33:29,1.855096,0.416616,0.027218,0.029050,2.123976,0.431563,0.046368,0.018836,4.430000,1.000000,20.020000,15.000000
17:33:29,1.855096,0.416616,0.027218,0.029050,2.121875,0.431563,0.046368,0.018836,4.430000,1.000000,20.020000,15.000000
17:33:29,2.275221,0.375095,0.154884,0.029050,2.123976,0.431148,0.047645,0.018836,4.430000,1.000000,20.020000,15.000000
17:33:29,2.065158,0.499656,0.027218,0.029050,2.123976,0.429902,0.047645,0.018836,4.430000,1.000000,20.020000,15.000000
17:33:29,2.065158,0.458136,0.027218,0.029050,2.123976,0.429902,0.047645,0.018836,4.430000,1.000000,20.020000,15.000000
17:33:30,1.855096,0.416616,0.027218,0.156723,2.121875,0.429902,0.047645,0.020113,4.430000,1.000000,20.020000,15.000000
17:33:30,2.485283,0.416616,0.027218,0.029050,2.128177,0.430317,0.039985,0.022666,4.430000,1.000000,20.020000,15.000000
17:33:30,2.065158,0.416616,0.154884,0.029050,2.130278,0.430317,0.041262,0.022666,4.430000,1.000000,20.020000,15.000000
17:33:30,1.855096,0.458136,0.027218,0.029050,2.128177,0.430317,0.039985,0.022666,4.430000,1.000000,20.020000,15.000000
17:33:30,2.065158,0.499656,0.027218,0.029050,2.128177,0.430733,0.039985,0.022666,4.430000,1.000000,20.020000,15.000000
17:33:30,2.065158,0.458136,0.027218,0.029050,2.128177,0.430733,0.039985,0.022666,4.430000,1.000000,20.020000,15.000000
17:33:30,2.065158,0.416616,0.027218,0.029050,2.128177,0.430733,0.039985,0.022666,4.430000,1.000000,20.020000,15.000000
17:33:30,1.645034,0.375095,0.027218,0.029050,2.126076,0.430317,0.039985,0.022666,4.430000,1.000000,20.020000,15.000000
17:33:30,2.065158,0.416616,0.027218,-0.098623,2.126076,0.430733,0.039985,0.021389,4.430000,1.000000,20.020000,15.000000
17:33:30,2.485283,0.416616,0.154884,0.029050,2.128177,0.430317,0.041262,0.021389,4.430000,1.000000,20.020000,15.000000
17:33:31,2.485283,0.499656,0.027218,0.029050,2.130278,0.430317,0.041262,0.021389,4.430000,1.000000,20.000000,15.000000
17:33:31,2.275221,0.458136,0.027218,0.029050,2.132378,0.430317,0.039985,0.021389,4.430000,1.000000,20.000000,15.000000
17:33:31,2.485283,0.375095,0.154884,0.029050,2.140781,0.430317,0.041262,0.021389,4.430000,1.000000,20.000000,15.000000
17:33:31,1.855096,0.375095,0.027218,0.029050,2.140781,0.430317,0.041262,0.021389,4.430000,1.000000,20.000000,15.000000
17:33:31,1.855096,0.416616,0.027218,0.029050,2.140781,0.430317,0.041262,0.021389,4.430000,1.000000,20.000000,15.000000
17:33:31,2.275221,0.458136,0.027218,0.029050,2.144982,0.430733,0.041262,0.021389,4.430000,1.000000,20.000000,15.000000
17:33:31,2.275221,0.458136,0.027218,0.029050,2.147082,0.430733,0.041262,0.021389,4.430000,1.000000,20.000000,15.000000
17:33:31,2.065158,0.458136,0.027218,0.029050,2.147082,0.431148,0.041262,0.021389,4.430000,1.000000,20.000000,15.000000
17:33:31,2.065158,0.416616,0.027218,0.029050,2.147082,0.431148,0.041262,0.021389,4.430000,1.000000,20.000000,15.000000
17:33:31,1.855096,0.416616,0.027218,0.029050,2.144982,0.431563,0.041262,0.021389,4.430000,1.000000,20.000000,15.000000
17:33:32,1.855096,0.416616,0.027218,0.029050,2.142881,0.431563,0.041262,0.021389,4.430000,1.000000,20.020000,15.000000
17:33:32,2.065158,0.499656,0.027218,0.029050,2.142881,0.431978,0.041262,0.021389,4.430000,1.000000,20.020000,15.000000
17:33:32,2.065158,0.458136,0.027218,0.029050,2.140781,0.431563,0.041262,0.021389,4.430000,1.000000,20.020000,15.000000
17:33:32,2.275221,0.458136,0.027218,0.029050,2.142881,0.431563,0.041262,0.021389,4.430000,1.000000,20.020000,15.000000
17:33:32,1.855096,0.416616,0.027218,0.029050,2.142881,0.431978,0.041262,0.021389,4.430000,1.000000,20.020000,15.000000
17:33:32,1.855096,0.416616,0.154884,0.029050,2.142881,0.431978,0.042538,0.021389,4.430000,1.000000,20.020000,15.000000
17:33:32,2.065158,0.416616,0.154884,0.029050,2.144982,0.431978,0.043815,0.021389,4.430000,1.000000,20.020000,15.000000
17:33:32,2.065158,0.499656,0.027218,0.029050,2.151284,0.432809,0.043815,0.021389,4.430000,1.000000,20.020000,15.000000
17:33:32,2.065158,0.458136,0.027218,0.029050,2.151284,0.432393,0.043815,0.021389,4.430000,1.000000,20.020000,15.000000
17:33:32,2.065158,0.416616,0.027218,0.029050,2.151284,0.431978,0.045092,0.021389,4.430000,1.000000,20.020000,15.000000
17:33:33,1.855096,0.416616,0.027218,0.029050,2.149183,0.432393,0.047645,0.020113,4.430000,1.000000,20.020000,15.000000
17:33:33,1.855096,0.416616,0.154884,0.029050,2.149183,0.432809,0.048922,0.020113,4.430000,1.000000,20.020000,15.000000
17:33:33,1.855096,0.416616,0.027218,0.029050,2.149183,0.432393,0.048922,0.020113,4.430000,1.000000,20.020000,15.000000
17:33:33,2.065158,0.499656,0.027218,0.029050,2.151284,0.432809,0.048922,0.021389,4.430000,1.000000,20.020000,15.000000
17:33:33,2.275221,0.458136,0.027218,0.029050,2.151284,0.432393,0.048922,0.022666,4.430000,1.000000,20.020000,15.000000
17:33:33,2.275221,0.416616,0.027218,0.029050,2.151284,0.431978,0.048922,0.022666,4.430000,1.000000,20.020000,15.000000
17:33:33,1.855096,0.375095,0.027218,0.029050,2.138680,0.431978,0.048922,0.022666,4.430000,1.000000,20.020000,15.000000
17:33:33,2.065158,0.416616,0.027218,0.029050,2.138680,0.432393,0.048922,0.022666,4.430000,1.000000,20.020000,15.000000
17:33:33,1.855096,0.416616,0.027218,0.029050,2.138680,0.432393,0.048922,0.022666,4.430000,1.000000,20.020000,15.000000
17:33:33,2.275221,0.499656,0.027218,0.029050,2.140781,0.432809,0.046368,0.022666,4.430000,1.000000,20.020000,15.000000
17:33:34,2.275221,0.458136,0.027218,0.029050,2.140781,0.432393,0.046368,0.022666,4.430000,1.000000,20.030001,15.000000
17:33:34,2.065158,0.416616,0.027218,0.029050,2.138680,0.432393,0.046368,0.022666,4.430000,1.000000,20.030001,15.000000
17:33:34,2.065158,0.375095,0.027218,0.029050,2.132378,0.431978,0.046368,0.021389,4.430000,1.000000,20.030001,15.000000
17:33:34,2.065158,0.416616,0.027218,0.029050,2.130278,0.432393,0.046368,0.021389,4.430000,1.000000,20.030001,15.000000
17:33:34,1.855096,0.416616,0.027218,0.029050,2.128177,0.432393,0.045092,0.021389,4.430000,1.000000,20.030001,15.000000
17:33:34,2.065158,0.499656,0.027218,0.029050,2.128177,0.432393,0.045092,0.021389,4.430000,1.000000,20.030001,15.000000
17:33:34,2.065158,0.499656,0.027218,0.029050,2.123976,0.432809,0.045092,0.021389,4.430000,1.000000,20.030001,15.000000
17:33:34,2.065158,0.416616,0.027218,0.029050,2.123976,0.432809,0.045092,0.021389,4.430000,1.000000,20.030001,15.000000
17:33:34,1.645034,0.416616,0.027218,0.029050,2.119774,0.433224,0.045092,0.021389,4.430000,1.000000,20.030001,15.000000
17:33:34,1.855096,0.416616,0.027218,0.029050,2.119774,0.433224,0.045092,0.021389,4.430000,1.000000,20.030001,15.000000
17:33:35,1.855096,0.416616,0.027218,0.029050,2.115573,0.433224,0.045092,0.021389,4.430000,1.000000,20.020000,15.000000
17:33:35,2.065158,0.458136,0.027218,0.029050,2.115573,0.433224,0.045092,0.021389,4.430000,1.000000,20.020000,15.000000
17:33:35,2.275221,0.458136,0.027218,0.029050,2.117674,0.432809,0.045092,0.021389,4.430000,1.000000,20.020000,15.000000
17:33:35,2.065158,0.416616,0.027218,0.029050,2.117674,0.433224,0.045092,0.022666,4.430000,1.000000,20.020000,15.000000
17:33:35,1.855096,0.416616,-0.100448,0.029050,2.117674,0.433639,0.043815,0.022666,4.430000,1.000000,20.020000,15.000000
17:33:35,1.855096,0.416616,0.027218,0.029050,2.117674,0.433639,0.039985,0.023943,4.430000,1.000000,20.020000,15.000000
17:33:35,2.065158,0.458136,0.027218,-0.098623,2.117674,0.434054,0.038708,0.023943,4.430000,1.000000,20.020000,15.000000
17:33:35,2.275221,0.458136,0.027218,0.029050,2.119774,0.434054,0.038708,0.023943,4.430000,1.000000,20.020000,15.000000
17:33:35,2.275221,0.499656,0.027218,0.029050,2.121875,0.434469,0.038708,0.023943,4.430000,1.000000,20.020000,15.000000
17:33:35,2.065158,0.375095,0.027218,0.029050,2.121875,0.434054,0.038708,0.023943,4.430000,1.000000,20.020000,15.000000
17:33:36,1.645034,0.416616,0.027218,0.029050,2.117674,0.434469,0.038708,0.023943,4.430000,1.000000,20.020000,15.000000
17:33:36,1.855096,0.416616,0.027218,0.029050,2.113473,0.434469,0.038708,0.023943,4.430000,1.000000,20.020000,15.000000
17:33:36,2.065158,0.458136,0.027218,0.029050,2.109271,0.434885,0.038708,0.023943,4.430000,1.000000,20.020000,15.000000
17:33:36,2.275221,0.458136,0.027218,0.029050,2.105070,0.434469,0.038708,0.023943,4.430000,1.000000,20.020000,15.000000
17:33:36,2.695345,0.458136,0.027218,-0.098623,2.109271,0.434469,0.038708,0.022666,4.430000,1.000000,20.020000,15.000000
17:33:36,2.065158,0.416616,0.027218,0.029050,2.100869,0.434469,0.038708,0.022666,4.430000,1.000000,20.020000,15.000000
17:33:36,1.855096,0.375095,0.027218,0.029050,2.098768,0.434054,0.038708,0.022666,4.430000,1.000000,20.020000,15.000000
17:33:36,1.855096,0.416616,0.154884,0.029050,2.096668,0.434054,0.039985,0.022666,4.430000,1.000000,20.020000,15.000000
17:33:36,2.065158,0.458136,0.027218,0.029050,2.096668,0.435300,0.037432,0.022666,4.430000,1.000000,20.020000,15.000000
17:33:36,2.065158,0.458136,0.027218,0.029050,2.094567,0.434885,0.037432,0.022666,4.430000,1.000000,20.020000,15.000000
17:33:37,2.065158,0.416616,0.027218,0.029050,2.092466,0.434469,0.037432,0.022666,4.430000,1.000000,20.020000,15.000000
17:33:37,1.855096,0.333575,0.027218,0.029050,2.090366,0.434054,0.037432,0.027773,4.430000,1.000000,20.020000,15.000000
17:33:37,1.855096,0.416616,0.027218,0.029050,2.086164,0.434054,0.037432,0.027773,4.430000,1.000000,20.020000,15.000000
17:33:37,1.855096,0.416616,0.027218,0.029050,2.084064,0.434054,0.037432,0.027773,4.430000,1.000000,20.020000,15.000000
17:33:37,1.855096,0.458136,0.027218,0.029050,2.079863,0.434054,0.037432,0.027773,4.430000,1.000000,20.020000,15.000000
17:33:37,2.065158,0.458136,0.027218,0.029050,2.077762,0.433639,0.036155,0.027773,4.430000,1.000000,20.020000,15.000000
17:33:37,2.065158,0.458136,0.027218,0.029050,2.077762,0.434054,0.036155,0.027773,4.430000,1.000000,20.020000,15.000000
17:33:37,1.855096,0.375095,0.027218,0.029050,2.075661,0.434054,0.036155,0.027773,4.430000,1.000000,20.020000,15.000000
17:33:37,1.855096,0.416616,0.027218,0.029050,2.069359,0.434469,0.036155,0.027773,4.430000,1.000000,20.020000,15.000000
17:33:37,1.855096,0.416616,0.027218,0.029050,2.063058,0.434469,0.036155,0.027773,4.430000,1.000000,20.020000,15.000000
17:33:38,2.065158,0.458136,0.027218,-0.353970,2.063058,0.434469,0.036155,0.023943,4.430000,1.000000,0.000000,15.000000
17:33:38,2.485283,0.458136,0.027218,0.029050,2.060957,0.434054,0.036155,0.023943,4.430000,1.000000,0.000000,15.000000
17:33:38,2.275221,0.416616,0.027218,0.029050,2.056756,0.433639,0.036155,0.023943,4.430000,1.000000,0.000000,15.000000
17:33:38,1.855096,0.416616,0.154884,0.029050,2.052554,0.434054,0.037432,0.023943,4.430000,1.000000,0.000000,15.000000
17:33:38,1.855096,0.416616,0.027218,0.029050,2.050454,0.434054,0.037432,0.022666,4.430000,1.000000,0.000000,15.000000
17:33:38,1.855096,0.458136,0.027218,0.029050,2.048353,0.434469,0.037432,0.022666,4.430000,1.000000,0.000000,15.000000
17:33:38,2.485283,0.458136,0.027218,0.029050,2.052554,0.434469,0.037432,0.022666,4.430000,1.000000,0.000000,15.000000
17:33:38,2.275221,0.499656,0.027218,-0.098623,2.052554,0.434885,0.037432,0.021389,4.430000,1.000000,0.000000,15.000000
17:33:38,2.065158,0.416616,0.027218,0.029050,2.050454,0.434885,0.037432,0.021389,4.430000,1.000000,0.000000,15.000000
17:33:38,1.855096,0.375095,0.027218,0.029050,2.052554,0.434469,0.037432,0.021389,4.430000,1.000000,0.000000,15.000000
17:33:39,2.275221,0.375095,0.027218,0.029050,2.056756,0.434054,0.037432,0.021389,4.430000,1.000000,20.010000,15.000000
17:33:39,2.065158,0.416616,0.027218,0.029050,2.056756,0.433639,0.037432,0.021389,4.430000,1.000000,20.010000,15.000000
17:33:39,2.065158,0.499656,0.027218,0.029050,2.054655,0.433639,0.037432,0.021389,4.430000,1.000000,20.010000,15.000000
